Resolution,1920,1080,Distance,60,Width,48,Subject,Jisseth,Test,TSVH-08292019-114333,Calibration,CC9-08292019-114302,Analizer, 1.0.0
Time(ms),GazeX(deg),GazeY(deg),StimulusX(deg),StimulusY(deg),GazeVelX(deg/s),GazeVelY(deg/s),ErrorX(deg),ErrorY(deg),PupilArea(px^2),GazeRawX(deg),GazeRawY(deg),Blinks
0,0.193831,-0.401409,0,0,0,0,0.193831,-0.401409,10508.8,0.263036,-0.337715,0
9.521,0.193831,-0.401409,0,0,0,0,0.193831,-0.401409,10508.8,0.214796,-0.364909,0
18.981,0.193831,-0.401409,0,0,0,0,0.193831,-0.401409,10508.8,0.0110016,-0.399957,0
26.991,0.193831,-0.401409,0,0,0,0,0.193831,-0.401409,10508.8,-0.05726,-0.468444,0
39.619,0.176454,-0.406824,0,0,-1.37603,-0.428858,0.176454,-0.406824,10535,0.212172,-0.540702,0
48.554,0.154026,-0.420121,0,0,-2.5102,-1.48814,0.154026,-0.420121,10547.6,0.0856045,-0.490867,0
58.834,0.135014,-0.434417,0,0,-1.84943,-1.39062,0.135014,-0.434417,10556.5,0.0785887,-0.430919,0
66.985,0.116099,-0.449051,0,0,-2.32048,-1.79543,0.116099,-0.449051,10562.5,-0.0467582,-0.312412,0
78.932,0.0991605,-0.460283,0,0,-1.41783,-0.940192,0.0991605,-0.460283,10568,0.144682,-0.436828,0
86.93,0.0885013,-0.465916,0,0,-1.33274,-0.704206,0.0885013,-0.465916,10573.4,0.0305009,-0.487848,0
99.392,0.0840884,-0.467611,0,0,-0.354106,-0.136013,0.0840884,-0.467611,10578.5,0.177324,-0.536496,0
108.257,0.0837195,-0.467851,0,0,-0.0416147,-0.0270587,0.0837195,-0.467851,10583.7,0.00849377,-0.455279,0
118.953,0.0849602,-0.467663,0,0,0.115999,0.0174973,0.0849602,-0.467663,10589.1,0.0752548,-0.498856,0
134.067,0.0856773,-0.466619,0,0,0.0474411,0.0691192,0.0856773,-0.466619,10593.6,0.139284,-0.558425,0
143.25,0.0856083,-0.462777,0,0,-0.00751288,0.418375,0.0856083,-0.462777,10596.9,0.0679705,-0.452034,0
150.929,0.0854204,-0.454099,0,0,-0.0244641,1.13011,0.0854204,-0.454099,10599.5,0.115817,-0.422155,0
159.763,0.085072,-0.441966,0,0,-0.0394369,1.37337,0.085072,-0.441966,10602.8,0.101395,-0.485561,0
171.313,0.08443,-0.431151,0,0,-0.0555888,0.936386,0.08443,-0.431151,10607.7,-0.00913744,-0.420813,0
179.011,0.0835562,-0.424912,0,0,-0.11351,0.810478,0.0835562,-0.424912,10613,-0.322594,-0.455288,0
191.021,0.0823953,-0.422692,0,0,-0.0966621,0.18483,0.0823953,-0.422692,10617.5,0.207533,0.112673,0
199.478,0.0807541,-0.422473,0,0,-0.194058,0.0259778,0.0807541,-0.422473,10621.1,0.0833897,-0.286687,0
211.071,0.0785002,-0.423093,0,0,-0.194423,-0.0534844,0.0785002,-0.423093,10623.4,0.0490096,-0.404265,0
219.004,0.0764231,-0.42471,0,0,-0.261822,-0.203877,0.0764231,-0.42471,10624.4,0.156155,-0.482853,0
231.792,0.074123,-0.428795,0,0,-0.179865,-0.319469,0.074123,-0.428795,10624.3,0.0681599,-0.226679,0
240.421,0.0689104,-0.436041,0,0,-0.604083,-0.8397,0.0689104,-0.436041,10623.2,0.011754,-0.487863,0
250.997,0.0610304,-0.44598,0,0,-0.745081,-0.939769,0.0610304,-0.44598,10621.3,-0.0452286,-0.457629,0
260.373,0.0549622,-0.457777,0,0,-0.647205,-1.25825,0.0549622,-0.457777,10619.5,0.0129922,-0.548699,0
271.054,0.052721,-0.468555,0,0,-0.209833,-1.009,0.052721,-0.468555,10618.7,0.0932664,-0.29293,0
279.32,0.0523449,-0.475981,0,0,-0.0455009,-0.898481,0.0523449,-0.475981,10619.2,-0.289724,-0.669954,0
291.689,0.0533452,-0.480534,0,0,0.0808683,-0.368049,0.0533452,-0.480534,10620,0.122233,-0.357584,0
299.522,0.0572179,-0.483252,0,0,0.494416,-0.346971,0.0572179,-0.483252,10620,0.0319409,-0.54758,0
311.268,0.0630669,-0.484974,0,0,0.497957,-0.146639,0.0630669,-0.484974,10618.7,-0.0137212,-0.490187,0
319.596,0.0679516,-0.486931,0,0,0.586532,-0.234948,0.0679516,-0.486931,10615.2,0.0583567,-0.467899,0
331.009,0.0719058,-0.48878,0,0,0.346472,-0.162034,0.0719058,-0.48878,10606.1,0.0970621,-0.497017,0
339.591,0.0770195,-0.490114,0,0,0.595854,-0.155395,0.0770195,-0.490114,10589.5,0.24238,-0.380197,0
351.009,0.0849241,-0.492472,0,0,0.692297,-0.206544,0.0849241,-0.492472,10567.4,0.22337,-0.450167,0
358.948,0.0959135,-0.497204,0,0,1.38422,-0.596046,0.0959135,-0.497204,10543.5,0.0233461,-0.540713,0
371.689,0.106546,-0.506537,0,0,0.834498,-0.73253,0.106546,-0.506537,10522,0.228439,-0.494934,0
383.746,0.112879,-0.521661,0,0,0.525284,-1.25438,0.112879,-0.521661,10502.9,0.17174,-0.390694,0
391.39,0.11471,-0.537949,0,0,0.239508,-2.13076,0.11471,-0.537949,10485.2,0.159099,-0.660494,0
403.705,0.11307,-0.549064,0,0,-0.133169,-0.902621,0.11307,-0.549064,10469.4,0.0492178,-0.602824,0
412.212,0.109016,-0.554378,0,0,-0.476591,-0.62466,0.109016,-0.554378,10453.7,0.0740753,-0.58551,0
423.285,0.103934,-0.55723,0,0,-0.458951,-0.257506,0.103934,-0.55723,10434.5,0.146898,-0.601948,0
431.515,0.098999,-0.559675,0,0,-0.59959,-0.297162,0.098999,-0.559675,10410.9,0.0885824,-0.531935,0
443.402,0.0952125,-0.562069,0,0,-0.31854,-0.2014,0.0952125,-0.562069,10386.5,0.039961,-0.553661,0
451.525,0.0918858,-0.564912,0,0,-0.409543,-0.349932,0.0918858,-0.564912,10363.8,0.0962805,-0.550325,0
462.984,0.0864664,-0.568149,0,0,-0.472941,-0.28245,0.0864664,-0.568149,10341,-0.0286553,-0.576831,0
471.511,0.0776272,-0.570755,0,0,-1.03661,-0.305698,0.0776272,-0.570755,10316.8,-0.0045391,-0.61392,0
483.502,0.0680834,-0.573165,0,0,-0.795909,-0.200987,0.0680834,-0.573165,10290.9,0.104924,-0.540253,0
491.793,0.0615627,-0.577612,0,0,-0.786483,-0.536278,0.0615627,-0.577612,10262.6,-0.150372,-0.573058,0
503.152,0.0584918,-0.584455,0,0,-0.270346,-0.602442,0.0584918,-0.584455,10236.4,0.129209,-0.686579,0
511.375,0.0570375,-0.590403,0,0,-0.176864,-0.723422,0.0570375,-0.590403,10218.9,0.0687532,-0.651651,0
523.494,0.0556495,-0.592755,0,0,-0.114526,-0.194076,0.0556495,-0.592755,10209.8,0.0491128,-0.578794,0
531.523,0.0539911,-0.592736,0,0,-0.206554,0.00246828,0.0539911,-0.592736,10205,0.0733269,-0.577361,0
543.073,0.0527545,-0.592397,0,0,-0.107071,0.0293308,0.0527545,-0.592397,10201.6,0.0525439,-0.614372,0
551.696,0.0521216,-0.591406,0,0,-0.0733936,0.114955,0.0521216,-0.591406,10198,-0.0437837,-0.642726,0
563.542,0.0515671,-0.589157,0,0,-0.0468046,0.189792,0.0515671,-0.589157,10193.2,0.055983,-0.534413,0
570.829,0.0511596,-0.586722,0,0,-0.0559293,0.334239,0.0511596,-0.586722,10186.8,-0.181709,-0.628697,0
583.252,0.051738,-0.585166,0,0,0.0465591,0.125203,0.051738,-0.585166,10179.7,0.0512526,-0.592597,0
591.805,0.0553674,-0.58425,0,0,0.42434,0.107113,0.0553674,-0.58425,10172.7,0.15812,-0.326769,0
602.983,0.0653747,-0.583242,0,0,0.895271,0.0902133,0.0653747,-0.583242,10166,-0.0589621,-0.582439,0
611.746,0.0827286,-0.581834,0,0,1.98037,0.160678,0.0827286,-0.581834,10159.7,0.0295074,-0.644685,0
623.547,0.102484,-0.580295,0,0,1.67403,0.130385,0.102484,-0.580295,10154.8,0.0723517,-0.5654,0
636.035,0.117631,-0.579128,0,0,1.21291,0.0934303,0.117631,-0.579128,10152,0.170645,-0.539625,0
643.803,0.125346,-0.578647,0,0,0.99322,0.0619238,0.125346,-0.578647,10150.6,0.124074,-0.626794,0
654.978,0.128353,-0.578604,0,0,0.269058,0.00382697,0.128353,-0.578604,10150,0.151116,-0.592957,0
663.529,0.130608,-0.578459,0,0,0.263736,0.0170655,0.130608,-0.578459,10149.7,0.129703,-0.548342,0
675.621,0.132397,-0.578109,0,0,0.147908,0.0289465,0.132397,-0.578109,10149.3,0.281029,-0.552704,0
683.572,0.132151,-0.577649,0,0,-0.0309444,0.0577901,0.132151,-0.577649,10148.6,0.122152,-0.607788,0
695.179,0.129654,-0.576678,0,0,-0.21512,0.0836791,0.129654,-0.576678,10148,-0.0555401,-0.698862,0
702.837,0.124981,-0.574721,0,0,-0.610169,0.255584,0.124981,-0.574721,10148.1,0.141071,-0.544115,0
715.359,0.117748,-0.572095,0,0,-0.577631,0.209636,0.117748,-0.572095,10149.9,0.152219,-0.571586,0
724.428,0.109723,-0.569005,0,0,-0.884856,0.340736,0.109723,-0.569005,10155.5,0.0103581,-0.593375,0
735.036,0.103772,-0.565226,0,0,-0.561017,0.35631,0.103772,-0.565226,10165.9,0.168607,-0.474737,0
743.321,0.101233,-0.561164,0,0,-0.306378,0.49029,0.101233,-0.561164,10178,0.0320725,-0.563141,0
755.587,0.101843,-0.556608,0,0,0.0496984,0.371361,0.101843,-0.556608,10187,0.0938352,-0.629134,0
763.865,0.10418,-0.550835,0,0,0.282358,0.697451,0.10418,-0.550835,10191.4,0.0997753,-0.560224,0
775.143,0.108402,-0.545359,0,0,0.374328,0.485568,0.108402,-0.545359,10192.8,0.121513,-0.473167,0
783.58,0.114634,-0.542646,0,0,0.738652,0.321479,0.114634,-0.542646,10193.1,0.0534421,-0.465186,0
795.533,0.120208,-0.542249,0,0,0.466279,0.0332859,0.120208,-0.542249,10192.6,0.132432,-0.527694,0
803.691,0.123445,-0.541608,0,0,0.396868,0.0785326,0.123445,-0.541608,10191,0.132447,-0.572215,0
816.474,0.125857,-0.53959,0,0,0.188642,0.157887,0.125857,-0.53959,10188.3,0.120816,-0.510083,0
824.464,0.129809,-0.536874,0,0,0.494639,0.339832,0.129809,-0.536874,10185.7,0.214706,-0.538912,0
834.886,0.137212,-0.53356,0,0,0.710329,0.317981,0.137212,-0.53356,10184.3,0.24693,-0.596261,0
843.487,0.147543,-0.528924,0,0,1.20121,0.53909,0.147543,-0.528924,10183.9,0.0354502,-0.615656,0
855.045,0.158083,-0.523441,0,0,0.911877,0.474378,0.158083,-0.523441,10184.1,0.217728,-0.576152,0
863.51,0.166854,-0.518866,0,0,1.03612,0.540476,0.166854,-0.518866,10184.8,0.336615,-0.358435,0
875.864,0.173018,-0.514593,0,0,0.498944,0.345848,0.173018,-0.514593,10186.7,0.210539,-0.469507,0
887.724,0.176493,-0.508101,0,0,0.292993,0.547419,0.176493,-0.508101,10189.9,0.17031,-0.489932,0
896.049,0.176994,-0.50082,0,0,0.0602407,0.8746,0.176994,-0.50082,10194.5,0.138731,-0.500551,0
907.512,0.17407,-0.496311,0,0,-0.255125,0.393316,0.17407,-0.496311,10199.3,0.147725,-0.434735,0
915.484,0.168872,-0.495072,0,0,-0.651928,0.155469,0.168872,-0.495072,10203,0.209401,-0.609153,0
927.003,0.164331,-0.495697,0,0,-0.394248,-0.0542601,0.164331,-0.495697,10205.4,0.201073,-0.45259,0
935.339,0.162091,-0.497284,0,0,-0.268682,-0.190383,0.162091,-0.497284,10206.8,0.132747,-0.568373,0
946.998,0.161499,-0.499251,0,0,-0.0507725,-0.168711,0.161499,-0.499251,10207.2,0.146745,-0.458011,0
955.028,0.161509,-0.500731,0,0,0.00123593,-0.184294,0.161509,-0.500731,10207,0.0768773,-0.40234,0
966.929,0.16193,-0.500919,0,0,0.0353364,-0.0158254,0.16193,-0.500919,10206.4,0.176983,-0.557275,0
976.315,0.164011,-0.500045,0,0,0.221735,0.0931249,0.164011,-0.500045,10205.7,0.188882,-0.513409,0
987.537,0.170783,-0.49869,0,0,0.603447,0.120745,0.170783,-0.49869,10204.7,0.150328,-0.52226,0
995.641,0.183953,-0.496084,0,0,1.6252,0.321591,0.183953,-0.496084,10203.3,0.309606,-0.496635,0
1007.57,0.199472,-0.490191,0,0,1.30087,0.494003,0.199472,-0.490191,10201.2,0.224922,-0.489135,0
1015.56,0.210855,-0.480792,0,0,1.4252,1.1767,0.210855,-0.480792,10198.6,0.303919,-0.45491,0
1027.53,0.216085,-0.470276,0,0,0.436833,0.878301,0.216085,-0.470276,10196,0.206091,-0.439453,0
1035.43,0.217602,-0.461504,0,0,0.192045,1.11078,0.217602,-0.461504,10192.6,0.252023,-0.334549,0
1046.98,0.21813,-0.456744,0,0,0.0457684,0.412111,0.21813,-0.456744,10185.3,0.209022,-0.417972,0
1055.81,0.218404,-0.456323,0,0,0.0309241,0.0476099,0.218404,-0.456323,10171.6,0.216766,-0.410681,0
1067.11,0.218179,-0.460082,0,0,-0.0198995,-0.33288,0.218179,-0.460082,10152.3,0.185177,-0.486862,0
1075.08,0.217745,-0.467717,0,0,-0.0544566,-0.957286,0.217745,-0.467717,10130.9,0.176938,-0.44638,0
1086.98,0.217496,-0.475893,0,0,-0.0208721,-0.687225,0.217496,-0.475893,10111.5,0.227127,-0.481901,0
1094.83,0.217682,-0.480725,0,0,0.0235796,-0.615359,0.217682,-0.480725,10094.9,0.240484,-0.519618,0
1107.08,0.218529,-0.482237,0,0,0.0691513,-0.123363,0.218529,-0.482237,10076.5,0.173206,-0.371213,0
1115.21,0.220781,-0.482293,0,0,0.277107,-0.00691435,0.220781,-0.482293,10053.4,0.237,-0.514363,0
1127.67,0.225061,-0.481112,0,0,0.343438,0.0947145,0.225061,-0.481112,10029.7,0.133137,-0.530657,0
1139.54,0.229546,-0.475936,0,0,0.37799,0.436309,0.229546,-0.475936,10011.4,0.256895,-0.371407,0
1147.5,0.231436,-0.460681,0,0,0.237316,1.91515,0.231436,-0.460681,9998.76,0.280785,-0.456568,0
1159.59,0.230188,-0.430831,0,0,-0.103267,2.46965,0.230188,-0.430831,9985.78,0.0729582,-0.491344,0
1167.56,0.22669,-0.392239,0,0,-0.43864,4.84032,0.22669,-0.392239,9968.32,0.272285,-0.320498,0
1179.01,0.221366,-0.358752,0,0,-0.465318,2.92664,0.221366,-0.358752,9947.91,0.20753,-0.366981,0
1187.63,0.213139,-0.337595,0,0,-0.954214,2.45389,0.213139,-0.337595,9929.48,0.0699518,-0.330914,0
1199.13,0.201285,-0.324299,0,0,-1.03028,1.15554,0.201285,-0.324299,9916.52,0.379133,0.0702569,0
1207.55,0.18781,-0.313076,0,0,-1.60057,1.33304,0.18781,-0.313076,9908.5,0.189366,-0.337199,0
1219.62,0.172028,-0.304521,0,0,-1.30802,0.709078,0.172028,-0.304521,9902.24,0.213642,-0.210919,0
1227.58,0.149231,-0.301119,0,0,-2.86473,0.427525,0.149231,-0.301119,9894.96,0.135077,-0.281704,0
1239.3,0.119864,-0.30201,0,0,-2.5059,-0.0760327,0.119864,-0.30201,9886.66,0.0622231,-0.277017,0
1247.59,0.0915926,-0.304894,0,0,-3.40702,-0.347555,0.0915926,-0.304894,9879.2,0.16923,-0.300977,0
1259.05,0.0713215,-0.307863,0,0,-1.76886,-0.259115,0.0713215,-0.307863,9873.37,0.0702498,-0.406284,0
1267.06,0.0602814,-0.311134,0,0,-1.37846,-0.408367,0.0602814,-0.311134,9868.45,0.00768264,-0.304828,0
1279.6,0.0555076,-0.317416,0,0,-0.380781,-0.501041,0.0555076,-0.317416,9864.51,-0.0139328,-0.34052,0
1287.64,0.0526883,-0.326475,0,0,-0.350738,-1.12705,0.0526883,-0.326475,9861.72,0.0298078,-0.374536,0
1299.62,0.0504977,-0.334445,0,0,-0.182764,-0.664977,0.0504977,-0.334445,9859.63,0.260623,-0.354522,0
1307.55,0.0524024,-0.339547,0,0,0.240343,-0.643807,0.0524024,-0.339547,9858.44,0.0151757,-0.258224,0
1318.98,0.0635765,-0.344662,0,0,0.977352,-0.447391,0.0635765,-0.344662,9858.28,0.19387,-0.333106,0
1327.62,0.0837943,-0.355893,0,0,2.34083,-1.30025,0.0837943,-0.355893,9858.57,0.182676,-0.335685,0
1339.05,0.108227,-0.375294,0,0,2.13648,-1.69649,0.108227,-0.375294,9859.14,-0.00496407,-0.42439,0
1347.6,0.13209,-0.394595,0,0,2.79362,-2.25953,0.13209,-0.394595,9860.81,0.193957,-0.43963,0
1359.57,0.149218,-0.405271,0,0,1.43074,-0.891808,0.149218,-0.405271,9864.4,0.153966,-0.402405,0
1367.62,0.157618,-0.408621,0,0,1.04271,-0.415843,0.157618,-0.408621,9869.84,0.144247,-0.411997,0
1379.34,0.160903,-0.409803,0,0,0.280388,-0.100889,0.160903,-0.409803,9875.99,0.018079,-0.456625,0
1391.55,0.163012,-0.411184,0,0,0.172827,-0.113189,0.163012,-0.411184,9881.48,0.168611,-0.417649,0
1399.53,0.166058,-0.413252,0,0,0.381378,-0.258871,0.166058,-0.413252,9886.14,0.181339,-0.462507,0
1411.74,0.170129,-0.416199,0,0,0.333364,-0.241399,0.170129,-0.416199,9891.06,-0.0848633,-0.399327,0
1419.62,0.174526,-0.418568,0,0,0.557981,-0.30057,0.174526,-0.418568,9897,0.171455,-0.237473,0
1430.93,0.178989,-0.417807,0,0,0.394857,0.067341,0.178989,-0.417807,9903.55,0.196348,-0.295536,0
1439.54,0.182888,-0.414575,0,0,0.452653,0.375104,0.182888,-0.414575,9909.4,0.240422,-0.435218,0
1451.35,0.185512,-0.412543,0,0,0.22215,0.172059,0.185512,-0.412543,9913.86,0.170453,-0.501123,0
1459.59,0.187533,-0.413087,0,0,0.245191,-0.0659871,0.187533,-0.413087,9917.35,-0.16334,-0.514277,0
1471.48,0.189392,-0.41477,0,0,0.156482,-0.141685,0.189392,-0.41477,9921.13,0.119093,-0.358044,0
1479.21,0.190082,-0.415607,0,0,0.0891999,-0.10817,0.190082,-0.415607,9926.81,0.303247,-0.31318,0
1491.26,0.189089,-0.413921,0,0,-0.0824556,0.139945,0.189089,-0.413921,9934.34,0.215057,-0.408598,0
1499.57,0.188043,-0.408877,4.97695,0,-0.12584,0.606853,-4.78891,-0.408877,9941.41,0.176272,-0.417739,0
1511.58,0.188659,-0.400768,4.97695,0,0.0512924,0.675493,-4.78829,-0.400768,9946.09,0.351198,-0.251298,0
1519.38,0.190993,-0.394907,4.97695,0,0.299322,0.751548,-4.78596,-0.394907,9949.13,0.128457,-0.465653,0
1531.35,0.195721,-0.395788,4.97695,0,0.3949,-0.0735472,-4.78123,-0.395788,9953.06,0.0841221,-0.47047,0
1539.69,0.203998,-0.399095,4.97695,0,0.992556,-0.396635,-4.77295,-0.399095,9960.5,0.113604,-0.442499,0
1551.04,0.214158,-0.400939,4.97695,0,0.894718,-0.162311,-4.76279,-0.400939,9971.63,0.200768,-0.290082,0
1561.03,0.220539,-0.402838,4.97695,0,0.638691,-0.190101,-4.75641,-0.402838,9983.1,0.25536,-0.280811,0
1570.95,0.220476,-0.405604,4.97695,0,-0.0062958,-0.278937,-4.75648,-0.405604,9993.26,0.0086589,-0.387258,0
1579.61,0.218141,-0.407671,4.97695,0,-0.269671,-0.238737,-4.75881,-0.407671,10005.4,0.254051,-0.254939,0
1591.34,0.216873,-0.408427,4.97695,0,-0.108158,-0.0644694,-4.76008,-0.408427,10021,0.281131,-0.436061,0
1599.47,0.216125,-0.408375,4.97695,0,-0.0919553,0.00642617,-4.76083,-0.408375,10035.3,0.248222,-0.490202,0
1611.31,0.214669,-0.407242,4.97695,0,-0.122949,0.0956075,-4.76228,-0.407242,10045.2,0.277753,-0.362784,0
1619.72,0.211494,-0.403266,4.97695,0,-0.377596,0.472932,-4.76546,-0.403266,10055.3,0.16839,-0.440334,0
1631.6,0.20634,-0.393752,4.97695,0,-0.433994,0.801152,-4.77061,-0.393752,10070.4,0.0889855,-0.450242,0
1643.49,0.19913,-0.37329,4.97695,0,-0.606088,1.72007,-4.77782,-0.37329,10087.3,-0.0522633,-0.401505,0
1651.51,0.189017,-0.337011,4.97695,0,-1.26079,4.52302,-4.78793,-0.337011,10099.8,-0.153593,-0.220366,0
1662.99,0.17759,-0.292693,4.97695,0,-0.99595,3.86245,-4.79936,-0.292693,10107.4,0.220205,-0.162724,0
1671.48,0.168629,-0.257475,4.97695,0,-1.05574,4.14915,-4.80832,-0.257475,10113.1,0.177576,-0.273164,0
1683.87,0.163774,-0.239542,4.97695,0,-0.391519,1.44647,-4.81318,-0.239542,10117.7,0.194779,-0.143757,0
1691.41,0.16077,-0.233872,4.97695,0,-0.39852,0.752101,-4.81618,-0.233872,10121.6,0.264782,-0.110889,0
1703.83,0.155674,-0.23272,4.97695,0,-0.410303,0.0927014,-4.82128,-0.23272,10126.5,0.0410322,-0.302035,0
1710.99,0.147878,-0.231778,4.97695,0,-1.08872,0.131575,-4.82907,-0.231778,10135.2,0.125467,-0.140512,0
1725.52,0.14078,-0.230186,4.97695,0,-0.488602,0.109581,-4.83617,-0.230186,10150.2,0.0590562,-0.233228,0
1733.61,0.137547,-0.232725,4.97695,0,-0.399422,-0.313709,-4.8394,-0.232725,10169.6,0.207675,-0.413136,0
1742.87,0.139239,-0.244421,4.97695,0,0.182691,-1.26333,-4.83771,-0.244421,10186.5,0.0305293,-0.377771,0
1751.6,0.147026,-0.260634,4.97695,0,0.892446,-1.85799,-4.82993,-0.260634,10195.6,0.157231,-0.342664,0
1763.57,0.16177,-0.274026,4.97695,0,1.23155,-1.11859,-4.81518,-0.274026,10198.4,0.0834415,-0.261281,0
1771.58,0.189888,-0.282671,4.97695,0,3.51211,-1.07976,-4.78706,-0.282671,10197.7,0.207998,-0.0708549,0
1783.59,0.289877,-0.283536,4.97695,0,8.3227,-0.0719992,-4.68707,-0.283536,10192.4,0.0670997,-0.301037,0
1791.73,0.637946,-0.26596,4.97695,0,42.7709,2.15968,-4.33901,-0.26596,10177.9,0.308018,-0.28749,0
1803.25,1.45601,-0.216794,4.97695,0,70.9941,4.26673,-3.52094,-0.216794,10150.7,2.28425,-0.0923955,0
1811.57,2.66297,-0.141435,4.97695,0,145.015,9.05433,-2.31398,-0.141435,10115.3,4.41192,-0.0221577,0
1823.59,3.75668,-0.0759904,4.97695,0,91.0055,5.44557,-1.22028,-0.0759904,10083.5,5.09332,-0.147969,0
1831.65,4.36652,-0.0518163,4.97695,0,75.6818,3.00002,-0.610433,-0.0518163,10063.7,4.61641,-0.100822,0
1843.02,4.59463,-0.0606819,4.97695,0,20.0622,-0.779739,-0.382325,-0.0606819,10054.8,4.63424,-0.11511,0
1851.62,4.67946,-0.0772312,4.97695,0,9.86872,-1.92523,-0.297493,-0.0772312,10052,4.82782,0.0774335,0
1863.02,4.72589,-0.0887184,4.97695,0,4.07325,-1.00765,-0.251058,-0.0887184,10051.7,4.7589,-0.0674086,0
1871.57,4.75499,-0.0946562,4.97695,0,3.40285,-0.694317,-0.221957,-0.0946562,10052.8,4.68216,-0.128834,0
1883.69,4.77936,-0.097729,4.97695,0,2.00946,-0.253427,-0.197592,-0.097729,10055.7,4.74602,-0.0776538,0
1895.86,4.80665,-0.10114,4.97695,0,2.24347,-0.280469,-0.170305,-0.10114,10061.3,4.78215,-0.1163,0
1903.54,4.83227,-0.107784,4.97695,0,3.33494,-0.864584,-0.144679,-0.107784,10070.3,4.84036,0.0460832,0
1915.95,4.85209,-0.118313,4.97695,0,1.59703,-0.848659,-0.124865,-0.118313,10081.4,4.96287,-0.393177,0
1924.31,4.86874,-0.131871,4.97695,0,1.99258,-1.62213,-0.108211,-0.131871,10092.5,4.85408,-0.296452,0
1935.04,4.88356,-0.14647,4.97695,0,1.38036,-1.35945,-0.0933873,-0.14647,10102.6,4.75155,-0.138516,0
1943.57,4.89485,-0.159681,4.97695,0,1.3243,-1.55007,-0.0821003,-0.159681,10109.8,4.92043,-0.179406,0
1955.62,4.90186,-0.17005,4.97695,0,0.582042,-0.860568,-0.0750872,-0.17005,10113.3,4.94931,-0.201613,0
1963.6,4.90587,-0.176089,4.97695,0,0.501662,-0.756391,-0.071082,-0.176089,10114.9,4.97496,-0.0774413,0
1975.66,4.91057,-0.178238,4.97695,0,0.389419,-0.178119,-0.0663852,-0.178238,10116.4,4.89166,-0.180165,0
1983.77,4.92113,-0.1789,4.97695,0,1.3039,-0.0816916,-0.0558184,-0.1789,10118.5,4.78629,-0.140612,0
1995.02,4.94608,-0.18041,4.97695,0,2.21709,-0.134254,-0.0308695,-0.18041,10121.5,4.76461,-0.187884,0
