Resolution,1920,1080,Distance,60,Width,48,Subject,alejandro,Test,TIF2-09252019-122716,Calibration,CC9-09252019-122635,Analizer, 1.0.0
Time(ms),GazeX(deg),GazeY(deg),StimulusX(deg),StimulusY(deg),GazeVelX(deg/s),GazeVelY(deg/s),ErrorX(deg),ErrorY(deg),PupilArea(px^2),GazeRawX(deg),GazeRawY(deg),Blinks
0,-0.118261,-0.128916,0,0,0,0,-0.118261,-0.128916,5955.2,-0.114088,-0.113479,0
11.897,-0.118261,-0.128916,0,0,0,0,-0.118261,-0.128916,5955.2,-0.128056,-0.0538415,0
19.501,-0.118261,-0.128916,0,0,0,0,-0.118261,-0.128916,5955.2,-0.112345,-0.10826,0
28.713,-0.118261,-0.128916,0,0,0,0,-0.118261,-0.128916,5955.2,-0.00688382,-0.0732295,0
41.996,-0.112512,-0.118677,0,0,0.4328,0.770852,-0.112512,-0.118677,5965.28,-0.142932,-0.0621096,0
49.932,-0.10869,-0.126966,0,0,0.481664,-1.0444,-0.10869,-0.126966,5967.75,-0.0640891,-0.132586,0
57.464,-0.101452,-0.138021,0,0,0.960925,-1.46782,-0.101452,-0.138021,5970,-0.131659,-0.162526,0
65.62,-0.091467,-0.148883,0,0,1.22428,-1.33176,-0.091467,-0.148883,5971.9,-0.0119775,-0.261102,0
77.653,-0.0787973,-0.16076,0,0,1.05291,-0.987033,-0.0787973,-0.16076,5973.34,-0.0235404,-0.154901,0
90.342,-0.0617722,-0.181881,0,0,1.34172,-1.66454,-0.0617722,-0.181881,5974.2,-0.0583301,-0.160168,0
99.919,-0.0415797,-0.218281,0,0,2.10844,-3.80072,-0.0415797,-0.218281,5974.57,-0.0901906,-0.262199,0
109.367,-0.0242629,-0.260926,0,0,1.83285,-4.51361,-0.0242629,-0.260926,5974.75,-0.121981,-0.44202,0
118.109,-0.0138656,-0.293589,0,0,1.18935,-3.73632,-0.0138656,-0.293589,5974.94,0.0698026,-0.326113,0
130.086,-0.00844999,-0.311049,0,0,0.452165,-1.45782,-0.00844999,-0.311049,5975.32,0.0719541,-0.348695,0
138.175,-0.00401954,-0.319321,0,0,0.547713,-1.02264,-0.00401954,-0.319321,5976.1,-0.011899,-0.325616,0
150.084,0.00113161,-0.32369,0,0,0.432542,-0.36687,0.00113161,-0.32369,5977.34,0.0359728,-0.346836,0
158.051,0.00567409,-0.32507,0,0,0.570161,-0.173171,0.00567409,-0.32507,5979.18,-0.0241739,-0.316594,0
169.5,0.00819346,-0.323167,0,0,0.220052,0.166232,0.00819346,-0.323167,5981.75,0.00620359,-0.300875,0
178.139,0.0092329,-0.318231,0,0,0.12032,0.571271,0.0092329,-0.318231,5984.46,-0.0213796,-0.309611,0
189.798,0.0105627,-0.311605,0,0,0.114062,0.568384,0.0105627,-0.311605,5986.78,0.0133217,-0.396133,0
197.56,0.0138179,-0.30473,0,0,0.419366,0.885721,0.0138179,-0.30473,5988.91,0.0164528,-0.308821,0
210.069,0.0189203,-0.298178,0,0,0.407898,0.523751,0.0189203,-0.298178,5991.16,0.0541023,-0.291405,0
218.085,0.0236674,-0.292905,0,0,0.592213,0.657792,0.0236674,-0.292905,5993.72,0.0215868,-0.197115,0
229.435,0.0262351,-0.290053,0,0,0.226228,0.251302,0.0262351,-0.290053,5996.58,0.0312009,-0.266138,0
237.894,0.0269423,-0.289531,0,0,0.0836001,0.0617071,0.0269423,-0.289531,5999.47,0.116602,-0.261046,0
250.104,0.0267237,-0.29196,0,0,-0.0179072,-0.198983,0.0267237,-0.29196,6002.28,0.0310521,-0.281627,0
257.942,0.025897,-0.301012,0,0,-0.105471,-1.15482,0.025897,-0.301012,6005.67,-0.0142172,-0.280392,0
271.088,0.0250387,-0.319393,0,0,-0.0652867,-1.3982,0.0250387,-0.319393,6010.78,0.0604589,-0.34452,0
278.583,0.0245881,-0.342978,0,0,-0.0601167,-3.14677,0.0245881,-0.342978,6017.82,0.00398675,-0.358315,0
289.525,0.0232787,-0.364985,0,0,-0.11967,-2.0113,0.0232787,-0.364985,6025.26,-0.0143417,-0.42209,0
298.316,0.0198974,-0.384676,0,0,-0.384628,-2.23989,0.0198974,-0.384676,6031.72,0.00903367,-0.432728,0
310.057,0.0153653,-0.404053,0,0,-0.386012,-1.65034,0.0153653,-0.404053,6037.04,-0.0924812,-0.482287,0
318.026,0.0115994,-0.420503,0,0,-0.472559,-2.06421,0.0115994,-0.420503,6040.78,0.0787177,-0.479586,0
329.653,0.00964495,-0.432248,0,0,-0.1681,-1.01015,0.00964495,-0.432248,6042.56,0.0434408,-0.430916,0
342.031,0.00896993,-0.442056,0,0,-0.054534,-0.792417,0.00896993,-0.442056,6042.91,0.0195988,-0.366071,0
351.666,0.00799621,-0.450662,0,0,-0.101061,-0.893179,0.00799621,-0.450662,6042.17,-0.0184648,-0.462413,0
361.468,0.00564818,-0.455671,0,0,-0.239546,-0.511073,0.00564818,-0.455671,6039.19,-0.0626688,-0.491552,0
369.609,0.00157906,-0.456511,0,0,-0.499831,-0.103119,0.00157906,-0.456511,6030.56,-0.0131135,-0.405404,0
381.51,-0.0043439,-0.455284,0,0,-0.497686,0.103101,-0.0043439,-0.455284,6009.25,-0.00193164,-0.446609,0
390.04,-0.011232,-0.453297,0,0,-0.807514,0.232918,-0.011232,-0.453297,5966.96,0.106467,-0.411716,0
402.046,-0.0185906,-0.449127,0,0,-0.612911,0.347321,-0.0185906,-0.449127,5900.52,-0.0210768,-0.492357,0
409.983,-0.0307635,-0.432921,0,0,-1.53369,2.04181,-0.0307635,-0.432921,5811.97,-0.0139116,-0.456797,0
421.484,-0.0632399,-0.356814,0,0,-2.82378,6.61741,-0.0632399,-0.356814,5702.48,-0.049827,-0.494249,0
429.467,-0.149997,-0.0916277,0,0,-10.8677,33.2189,-0.149997,-0.0916277,5570.16,-0.0968423,-0.422756,0
442.173,-0.334168,0.500706,0,0,-14.4948,46.6184,-0.334168,0.500706,5416.25,-0.487839,0.763427,0
451.01,-0.614421,1.37454,0,0,-31.7136,98.8836,-0.614421,1.37454,5251.8,-0.890203,2.07445,0
462.25,-0.914689,2.31436,0,0,-26.7142,83.6136,-0.914689,2.31436,5094.11,-1.12959,3.43089,0
470.013,-1.14906,3.14223,0,0,-30.1914,106.643,-1.14906,3.14223,4953.83,-1.37766,4.12649,0
481.523,-1.28789,3.76401,0,0,-12.0616,54.0208,-1.28789,3.76401,4826.94,-1.46758,4.39641,0
490.077,-1.35122,4.14388,0,0,-7.40359,44.4092,-1.35122,4.14388,4702.97,-1.41048,4.5692,0
501.504,-1.37424,4.3393,0,0,-2.01412,17.1011,-1.37424,4.3393,4575.82,-1.39449,4.25137,0
510.031,-1.38356,4.4532,0,0,-1.09258,13.3578,-1.38356,4.4532,4441.36,-1.40145,4.5856,0
522.029,-1.39041,4.54839,0,0,-0.571068,7.93397,-1.39041,4.54839,4295.23,-1.33924,4.45451,0
529.645,-1.39637,4.638,0,0,-0.782616,11.7653,-1.39637,4.638,4144.41,-1.43252,4.71827,0
542.082,-1.40141,4.71167,0,0,-0.405317,5.92389,-1.40141,4.71167,4008.09,-1.33974,4.86188,0
550.052,-1.4075,4.75851,0,0,-0.76451,5.87638,-1.4075,4.75851,3895.75,-1.36702,5.01533,0
561.496,-1.41921,4.78028,0,0,-1.02283,1.90235,-1.41921,4.78028,3800.43,-1.36287,4.80549,0
570.14,-1.43944,4.78707,0,0,-2.34108,0.785679,-1.43944,4.78707,3711.49,-1.55687,4.54424,0
582.081,-1.4634,4.78741,0,0,-2.0065,0.0289074,-1.4634,4.78741,3622.93,-1.50267,4.70674,0
594.143,-1.48501,4.78462,0,0,-1.79132,-0.23115,-1.48501,4.78462,3539.03,-1.58737,4.83333,0
602.03,-1.50387,4.77817,0,0,-2.39157,-0.817958,-1.50387,4.77817,3466.44,-1.55752,4.77924,0
613.499,-1.51916,4.76611,0,0,-1.33303,-1.05182,-1.51916,4.76611,3400.61,-1.44849,4.78508,0
622.065,-1.5289,4.74437,0,0,-1.13664,-2.53739,-1.5289,4.74437,3335.89,-1.49641,5.01834,0
633.49,-1.53485,4.71026,0,0,-0.520698,-2.98609,-1.53485,4.71026,3277.25,-1.5353,4.68946,0
642.177,-1.53955,4.67011,0,0,-0.541319,-4.62218,-1.53955,4.67011,3228.1,-1.51814,4.63343,0
655.017,-1.54452,4.63411,0,0,-0.387492,-2.80377,-1.54452,4.63411,3181.52,-1.50017,4.44865,0
662.161,-1.55326,4.60614,0,0,-1.22236,-3.91419,-1.55326,4.60614,3130.01,-1.62968,4.60788,0
673.418,-1.5676,4.58637,0,0,-1.27429,-1.75625,-1.5676,4.58637,3076.24,-1.65937,4.89213,0
681.495,-1.58359,4.5739,0,0,-1.97987,-1.54395,-1.58359,4.5739,3028.8,-1.57566,4.48954,0
694.131,-1.59828,4.56345,0,0,-1.16193,-0.827361,-1.59828,4.56345,2989.06,-1.69319,4.3557,0
702.067,-1.61233,4.55243,0,0,-1.77117,-1.38779,-1.61233,4.55243,2951.39,-1.66928,4.55823,0
714.403,-1.62365,4.54641,0,0,-0.917637,-0.488555,-1.62365,4.54641,2911.88,-1.61632,4.41237,0
722.992,-1.62998,4.55356,0,0,-0.736292,0.83333,-1.62998,4.55356,2869.29,-1.55351,4.78299,0
733.546,-1.63345,4.58461,0,0,-0.328789,2.9413,-1.63345,4.58461,2825.59,-1.54963,4.77678,0
742.008,-1.63596,4.63948,0,0,-0.29775,6.48428,-1.63596,4.63948,2784.31,-1.78367,4.14032,0
754.02,-1.63623,4.69343,0,0,-0.0217458,4.49124,-1.63623,4.69343,2743.04,-1.62504,4.27786,0
762.965,-1.63303,4.72493,0,0,0.356793,3.52198,-1.63303,4.72493,2698.5,-1.44164,4.9733,0
773.639,-1.62726,4.7377,0,0,0.54112,1.19643,-1.62726,4.7377,2656.83,-1.6024,4.76924,0
781.522,-1.62134,4.74463,0,0,0.751303,0.879142,-1.62134,4.74463,2623.11,-1.76044,4.44598,0
793.56,-1.61532,4.75685,0,0,0.499812,1.01466,-1.61532,4.75685,2593.73,-1.6225,4.73864,0
801.624,-1.59837,4.80361,0,0,2.10141,5.7995,-1.59837,4.80361,2566.03,-1.64606,4.7242,0
813.478,-1.54271,4.99535,0,0,4.69541,16.175,-1.54271,4.99535,2537.01,-1.77929,4.76582,0
822.028,-1.4261,5.60045,0,0,13.6394,70.7716,-1.4261,5.60045,2500.87,-1.05993,5.0592,0
834.171,-1.27541,6.83288,0,0,12.4094,101.493,-1.27541,6.83288,2458.77,-0.853908,7.70633,0
847.017,-1.1487,8.41235,0,0,9.86403,122.954,-1.1487,8.41235,2419.28,-1.2146,9.94511,0
854.473,-1.06937,9.71889,0,0,10.6394,175.233,-1.06937,9.71889,2389.81,-1.19089,10.758,0
865.554,-1.02169,10.4321,0,0,4.30278,64.3632,-1.02169,10.4321,2371.81,-1.08017,11.2052,0
873.382,-0.989741,10.6882,0,0,4.08128,32.7138,-0.989741,10.6882,2361.28,-0.894061,10.9436,0
885.391,-0.969603,10.7466,0,0,1.67698,4.86487,-0.969603,10.7466,2353.78,-0.744522,11.0269,0
894.104,-0.960225,10.7541,0,0,1.07626,0.860993,-0.960225,10.7541,2347.27,-0.866856,10.8292,0
905.571,-0.957651,10.7525,0,0,0.224436,-0.14066,-0.957651,10.7525,2340.52,-0.940636,10.7435,0
914.015,-0.958563,10.7472,0,0,-0.107944,-0.624783,-0.958563,10.7472,2331.82,-0.937873,10.726,0
926.253,-0.964109,10.739,0,0,-0.45317,-0.667398,-0.964109,10.739,2319.75,-1.04889,10.7185,0
935.345,-0.977132,10.7288,0,0,-1.43238,-1.12781,-0.977132,10.7288,2304.66,-0.941003,10.6028,0
945.894,-0.996701,10.7131,0,0,-1.85502,-1.49132,-0.996701,10.7131,2289.4,-1.04528,10.6603,0
953.534,-1.01734,10.684,0,0,-2.70127,-3.80266,-1.01734,10.684,2276.88,-1.04871,10.755,0
965.994,-1.03276,10.6408,0,0,-1.23755,-3.4663,-1.03276,10.6408,2267.12,-1.05815,10.5908,0
974.857,-1.04117,10.5976,0,0,-0.949529,-4.87849,-1.04117,10.5976,2258.81,-1.0065,10.5149,0
985.345,-1.04665,10.5695,0,0,-0.52217,-2.67443,-1.04665,10.5695,2251.38,-0.985873,10.5197,0
994.067,-1.05276,10.5579,0,0,-0.700125,-1.33306,-1.05276,10.5579,2244.58,-1.06448,10.4875,0
1005.5,-1.05851,10.555,0,0,-0.50352,-0.257653,-1.05851,10.555,2237.77,-1.07097,10.5316,0
1014.98,-1.06207,10.5554,0,0,-0.375096,0.0513367,-1.06207,10.5554,2229.33,-1.14003,10.4952,0
1025.69,-1.06466,10.5597,0,0,-0.242349,0.393241,-1.06466,10.5597,2218.28,-0.999023,10.565,0
1034.12,-1.06768,10.5702,0,0,-0.357525,1.24933,-1.06768,10.5702,2206.47,-1.18236,10.688,0
1046.15,-1.06957,10.5864,0,0,-0.157519,1.35019,-1.06957,10.5864,2196.12,-1.16629,10.6324,0
1054.27,-1.06837,10.6026,0,0,0.148571,1.99058,-1.06837,10.6026,2187.46,-0.958933,10.5818,0
1066.16,-1.06426,10.6146,0,0,0.345356,1.00692,-1.06426,10.6146,2180.29,-1.05383,10.598,0
1074.07,-1.05976,10.6227,0,0,0.568482,1.0248,-1.05976,10.6227,2174.45,-1.11922,10.6289,0
1085.54,-1.05693,10.6273,0,0,0.246626,0.400261,-1.05693,10.6273,2169.25,-1.12448,10.6645,0
1099.97,-1.05559,10.6289,0,0,0.092787,0.115408,-1.05559,10.6289,2164.2,-0.996071,10.6295,0
1108.61,-1.05514,10.6293,0,0,0.0525192,0.0399986,-1.05514,10.6293,2159.6,-1.01546,10.5874,0
1117.34,-1.05543,10.6293,0,0,-0.0334956,0.00480511,-1.05543,10.6293,2155.84,-1.05735,10.6316,0
1125.41,-1.05615,10.6294,0,0,-0.0890768,0.0130997,-1.05615,10.6294,2152.72,-1.02028,10.5963,0
1138.16,-1.05777,10.6299,0,0,-0.126601,0.0392937,-1.05777,10.6299,2149.89,-1.07296,10.6483,0
1146.49,-1.06244,10.6313,0,0,-0.561555,0.163459,-1.06244,10.6313,2147.66,-1.04626,10.6349,0
1157.5,-1.07212,10.634,0,0,-0.879737,0.247253,-1.07212,10.634,2146.48,-1.1089,10.5446,0
1166.08,-1.08588,10.6383,0,0,-1.60203,0.500733,-1.08588,10.6383,2146.13,-1.11297,10.6474,0
1177.52,-1.10079,10.6437,0,0,-1.30402,0.471693,-1.10079,10.6437,2146.16,-1.21493,10.6752,0
1187.07,-1.11525,10.6492,0,0,-1.51328,0.573913,-1.11525,10.6492,2146.52,-1.1531,10.6319,0
1198.03,-1.1289,10.6539,0,0,-1.24565,0.432434,-1.1289,10.6539,2147.46,-1.08064,10.6596,0
1206.3,-1.14192,10.6574,0,0,-1.57433,0.415394,-1.14192,10.6574,2148.84,-1.26138,10.6719,0
1217.49,-1.15314,10.6594,0,0,-1.00339,0.178402,-1.15314,10.6594,2150.32,-1.18965,10.6625,0
1225.54,-1.15858,10.6606,0,0,-0.674641,0.156889,-1.15858,10.6606,2152.21,-1.20559,10.6631,0
1238.12,-1.15603,10.6621,0,0,0.202838,0.114378,-1.15603,10.6621,2154.96,-1.08121,10.5795,0
1247.46,-1.14723,10.6638,0,0,0.941987,0.189876,-1.14723,10.6638,2158.66,-1.11466,10.6253,0
1259.07,-1.13397,10.6658,0,0,1.142,0.164711,-1.13397,10.6658,2164,-1.17344,10.6559,0
1266.98,-1.11821,10.668,0,0,1.99326,0.28838,-1.11821,10.668,2171.65,-1.18734,10.6774,0
1278.68,-1.10502,10.6707,0,0,1.12626,0.226212,-1.10502,10.6707,2180.18,-1.09442,10.6725,0
1286.15,-1.09766,10.6734,0,0,0.986495,0.360274,-1.09766,10.6734,2188.54,-1.04439,10.6243,0
1297.5,-1.09469,10.6759,0,0,0.261919,0.225288,-1.09469,10.6759,2197.83,-1.09617,10.7209,0
1306.11,-1.09354,10.6777,0,0,0.133304,0.207373,-1.09354,10.6777,2208.12,-1.07669,10.7494,0
1318.11,-1.0929,10.6781,0,0,0.0530168,0.0353448,-1.0929,10.6781,2217.65,-1.06328,10.7326,0
1326.08,-1.09246,10.6776,0,0,0.0555443,-0.0691884,-1.09246,10.6776,2225.86,-1.08981,10.6564,0
1337.54,-1.09188,10.6767,0,0,0.0502255,-0.078385,-1.09188,10.6767,2234.15,-1.12934,10.7666,0
1350.46,-1.0907,10.6753,0,0,0.091313,-0.105213,-1.0907,10.6753,2243.11,-1.08939,10.7799,0
1359.09,-1.08847,10.6734,0,0,0.258727,-0.229137,-1.08847,10.6734,2251.59,-1.0653,10.6717,0
1369.42,-1.08371,10.6716,0,0,0.460533,-0.173445,-1.08371,10.6716,2259.23,-1.16708,10.6319,0
1377.59,-1.07222,10.6708,0,0,1.4078,-0.0943452,-1.07222,10.6708,2267,-1.10963,10.6752,0
1390.32,-1.05128,10.6703,0,0,1.64543,-0.0401971,-1.05128,10.6703,2274.62,-0.999709,10.6711,0
1397.44,-1.02838,10.6674,0,0,3.21417,-0.406508,-1.02838,10.6674,2280.35,-0.900839,10.618,0
1410.14,-1.01425,10.6598,0,0,1.11249,-0.595634,-1.01425,10.6598,2283.43,-0.971102,10.6238,0
1418.13,-1.01332,10.6453,0,0,0.116383,-1.81798,-1.01332,10.6453,2284.88,-0.971995,10.751,0
1429.41,-1.04167,10.5961,0,0,-2.51456,-4.3669,-1.04167,10.5961,2287.06,-0.915953,10.607,0
1438.02,-1.14817,10.3871,0,0,-12.3686,-24.2619,-1.14817,10.3871,2294.08,-0.750834,10.8189,0
1449.43,-1.37274,9.74498,0,0,-19.6778,-56.27,-1.37274,9.74498,2310.54,-1.5662,9.73914,0
1457.87,-1.66911,8.42039,0,0,-35.119,-156.961,-1.66911,8.42039,2337.19,-2.22679,6.37971,0
1470.58,-1.93166,6.61903,0,0,-20.6542,-141.705,-1.93166,6.61903,2368.17,-2.58366,4.3545,0
1478.97,-2.09466,5.04564,0,0,-19.4205,-187.465,-2.09466,5.04564,2393.68,-2.55302,3.77092,0
1489.6,-2.16465,4.18788,0,0,-6.58855,-80.7453,-2.16465,4.18788,2407.96,-2.16947,3.84573,0
1497.47,-2.18416,3.90306,0,0,-2.47751,-36.172,-2.18416,3.90306,2413.21,-2.15032,3.56898,0
1509.8,-2.18733,3.8474,0,0,-0.257325,-4.51404,-2.18733,3.8474,2414.54,-2.21871,3.68994,0
1518.09,-2.18681,3.84631,0,0,0.0632348,-0.130953,-2.18681,3.84631,2415.13,-2.29909,3.6148,0
1529.97,-2.18349,3.86239,0,0,0.278684,1.3529,-2.18349,3.86239,2416.86,-2.19106,3.88387,0
1538.86,-2.17483,3.89035,0,0,0.974743,3.14556,-2.17483,3.89035,2422.04,-2.13999,4.02116,0
1550.09,-2.15791,3.924,0,0,1.50641,2.99594,-2.15791,3.924,2432,-2.20336,4.21702,0
1558.09,-2.13409,3.9574,0,0,2.97942,4.17829,-2.13409,3.9574,2444.92,-2.06368,4.15231,0
1570.16,-2.11235,3.98203,0,0,1.80042,2.03952,-2.11235,3.98203,2458.71,-2.08081,4.00864,0
1577.47,-2.10007,3.99597,0,0,1.67927,1.9064,-2.10007,3.99597,2474.36,-2.09376,3.87107,0
1590.09,-2.09492,4.00452,0,0,0.408476,0.677649,-2.09492,4.00452,2492.13,-2.18904,3.84834,0
1602.78,-2.09172,4.00949,0,0,0.25209,0.391536,-2.09172,4.00949,2508.88,-2.09362,4.00927,0
1609.51,-2.08985,4.01035,0,0,0.278631,0.128535,-2.08985,4.01035,2522.81,-2.02747,4.1706,0
1621.54,-2.09012,4.00822,0,0,-0.0224453,-0.177099,-2.09012,4.00822,2535.6,-2.27877,3.79187,0
1630.06,-2.09106,4.00562,0,0,-0.110925,-0.304643,-2.09106,4.00562,2549.95,-2.03127,4.048,0
1642.22,-2.09143,4.00489,0,0,-0.0304868,-0.0599789,-2.09143,4.00489,2568.4,-2.12713,3.9452,0
1651.12,-2.09176,4.00641,0,0,-0.0362697,0.170525,-2.09176,4.00641,2592.06,-1.96812,4.38717,0
1662.08,-2.09462,4.01086,0,0,-0.261032,0.405428,-2.09462,4.01086,2618.3,-2.26846,3.81869,0
1670.1,-2.10554,4.02,0,0,-1.36157,1.14007,-2.10554,4.02,2641.53,-2.07286,4.10533,0
1681.54,-2.13466,4.03292,0,0,-2.54558,1.12943,-2.13466,4.03292,2659.19,-2.05089,4.07171,0
1690.15,-2.19634,4.05072,0,0,-7.16435,2.06729,-2.19634,4.05072,2673.68,-2.22648,3.77793,0
1701.81,-2.3059,4.08602,0,0,-9.39614,3.0271,-2.3059,4.08602,2686.27,-2.04707,3.70409,0
1710.07,-2.47355,4.1675,0,0,-20.3009,9.86678,-2.47355,4.1675,2695.33,-2.88941,4.15173,0
1721.85,-2.67888,4.32735,0,0,-17.4261,13.5665,-2.67888,4.32735,2700.38,-2.86345,4.47701,0
1729.63,-2.86891,4.54568,0,0,-24.4231,28.0593,-2.86891,4.54568,2702.75,-3.05735,4.94704,0
1741.94,-3.01107,4.73306,0,0,-11.5508,15.2253,-3.01107,4.73306,2703.58,-3.07261,4.9696,0
1750.56,-3.1118,4.82921,0,0,-11.6865,11.156,-3.1118,4.82921,2703.48,-3.24073,4.88077,0
1762.47,-3.18055,4.86072,0,0,-5.77129,2.64482,-3.18055,4.86072,2702.77,-3.18904,4.80881,0
1769.48,-3.22214,4.87488,0,0,-5.93414,2.02033,-3.22214,4.87488,2701.49,-3.29515,4.66589,0
1782.09,-3.24788,4.88702,0,0,-2.04095,0.962953,-3.24788,4.88702,2699.56,-3.30195,5.10749,0
1790.23,-3.26725,4.89384,0,0,-2.38178,0.838782,-3.26725,4.89384,2696.58,-3.35386,4.82784,0
1802.23,-3.28409,4.89554,0,0,-1.40328,0.141581,-3.28409,4.89554,2691.8,-3.32924,4.59644,0
1809.95,-3.29868,4.8985,0,0,-1.88752,0.382792,-3.29868,4.8985,2685.77,-3.21037,5.0025,0
1821.62,-3.30915,4.90533,0,0,-0.898244,0.585469,-3.30915,4.90533,2680.36,-3.33004,5.02698,0
1830.06,-3.3153,4.91066,0,0,-0.728087,0.631894,-3.3153,4.91066,2676.59,-3.2191,5.07811,0
1843.03,-3.31893,4.90934,0,0,-0.27997,-0.10154,-3.31893,4.90934,2673.62,-3.36305,4.68576,0
1854.17,-3.32171,4.89818,0,0,-0.249616,-1.00233,-3.32171,4.89818,2669.51,-3.30398,4.73013,0
1862.21,-3.32522,4.87746,0,0,-0.435744,-2.57856,-3.32522,4.87746,2663.09,-3.31537,4.93284,0
1873.52,-3.33038,4.8565,0,0,-0.456348,-1.85349,-3.33038,4.8565,2655.01,-3.29778,5.31365,0
1881.92,-3.33542,4.84463,0,0,-0.600618,-1.4129,-3.33542,4.84463,2647.44,-3.37459,4.74189,0
1895.63,-3.33798,4.84103,0,0,-0.186304,-0.262881,-3.33798,4.84103,2641.35,-3.40062,4.83054,0
1903.13,-3.33835,4.84063,0,0,-0.0502845,-0.0524688,-3.33835,4.84063,2635.93,-3.33296,4.84459,0
1913.39,-3.33822,4.84074,0,0,0.0127789,0.010891,-3.33822,4.84074,2631.46,-3.34984,4.83846,0
1921.41,-3.33839,4.84072,0,0,-0.0209589,-0.00328597,-3.33839,4.84072,2628.8,-3.34367,4.85743,0
1933.95,-3.33875,4.84082,0,0,-0.028647,0.00806994,-3.33875,4.84082,2627.5,-3.33708,4.47651,0
1942.13,-3.33919,4.84117,0,0,-0.0542253,0.042574,-3.33919,4.84117,2626.69,-3.21694,4.89432,0
1955.02,-3.33983,4.84145,0,0,-0.0490844,0.0219162,-3.33983,4.84145,2626.17,-3.13438,4.90976,0
1962.69,-3.34065,4.8412,0,0,-0.108059,-0.0325144,-3.34065,4.8412,2626.02,-3.23745,4.72457,0
1973.55,-3.34224,4.8389,0,0,-0.14607,-0.212047,-3.34224,4.8389,2626.16,-3.35806,4.4398,0
1981.45,-3.3456,4.83113,0,0,-0.424842,-0.982996,-3.3456,4.83113,2626.69,-3.15003,4.8786,0
1994.04,-3.35044,4.81598,0,0,-0.384206,-1.20314,-3.35044,4.81598,2627.98,-3.41827,4.64924,0
2002.56,-3.35555,4.79621,0,0,-0.599891,-2.31912,-3.35555,4.79621,2630.1,-3.36646,5.01243,0
2014.1,-3.36008,4.77312,0,0,-0.392306,-2.00194,-3.36008,4.77312,2632.48,-3.38988,4.67953,0
2021.99,-3.36235,4.74408,0,0,-0.288517,-3.67886,-3.36235,4.74408,2634.35,-3.33809,4.90611,0
2033.56,-3.36188,4.71204,0,0,0.0409468,-2.76996,-3.36188,4.71204,2635.42,-3.32457,4.77709,0
2041.82,-3.35993,4.68688,0,0,0.235692,-3.04546,-3.35993,4.68688,2636,-3.38921,4.65472,0
2054.35,-3.35649,4.67254,0,0,0.274438,-1.14443,-3.35649,4.67254,2636.43,-3.30527,4.67738,0
2062.05,-3.35087,4.66199,0,0,0.730311,-1.37086,-3.35087,4.66199,2636.78,-3.4364,4.62484,0
2074.11,-3.33427,4.64379,0,0,1.37589,-1.50865,-3.33427,4.64379,2636.89,-3.33441,4.65203,0
2082.12,-3.24943,4.60719,0,0,10.5922,-4.56852,-3.24943,4.60719,2636.41,-3.38999,4.55942,0
2093.56,-2.91809,4.54358,0,0,28.9678,-5.56155,-2.91809,4.54358,2634.77,-3.43851,4.88315,0
2106.09,-2.06382,4.45399,0,0,68.1671,-7.14896,-2.06382,4.45399,2632.18,-2.04897,4.32012,0
2114.13,-0.539112,4.35112,0,0,189.782,-12.8041,-0.539112,4.35112,2630.01,2.04119,4.49546,0
2125.65,1.40985,4.25239,0,0,169.181,-8.57043,1.40985,4.25239,2629.07,4.22044,4.11864,0
2133.95,3.17625,4.18106,0,0,212.666,-8.58761,3.17625,4.18106,2629.21,5.02586,3.93108,0
