Resolution,1920,1080,Distance,58,Width,47.5,Subject,V004GBAURA,Test,TPL-03122018-140129,Calibration,CC9-03122018-140105,Oscann, 4.0.8,libTracker, 1.0.7,crtime, 11072018-163902
Time(ms),GazeX(deg),GazeY(deg),StimulusX(deg),StimulusY(deg),GazeVelX(deg/s),GazeVelY(deg/s),ErrorX(deg),ErrorY(deg),PupilArea(px^2),GazeRawX(deg),GazeRawY(deg),Blinks
0,-0.229348,0.279533,-16.7368,12.9709,0,0,16.5074,-12.6914,6464.34,-0.272565,0.302113,0
6.267,-0.229348,0.279533,-16.7368,12.9709,0,0,16.5074,-12.6914,6464.34,-0.250428,0.32562,0
18.249,-0.229348,0.279533,-16.7368,12.9709,0,0,16.5074,-12.6914,6464.34,-0.188285,0.271552,0
27.024,-0.229348,0.279533,-16.7368,12.9709,0,0,16.5074,-12.6914,6464.34,-0.190625,0.215478,0
38.623,-0.21777,0.290688,-16.7368,12.9709,0.998185,0.961734,16.519,-12.6803,6466.79,-0.222108,0.287188,0
47.018,-0.208013,0.287608,-16.7368,12.9709,1.16227,-0.366886,16.5288,-12.6833,6457.59,-0.204928,0.317304,0
59.009,-0.201261,0.285815,-16.7368,12.9709,0.563024,-0.149518,16.5355,-12.6851,6447.51,-0.1649,0.245548,0
67.012,-0.196222,0.284814,-16.7368,12.9709,0.629697,-0.125151,16.5405,-12.6861,6439.57,-0.18213,0.313672,0
78.455,-0.191813,0.284071,-16.7368,12.9709,0.385292,-0.0649196,16.5449,-12.6869,6434.87,-0.183841,0.282254,0
87.279,-0.18815,0.283543,-16.7368,12.9709,0.41508,-0.0597922,16.5486,-12.6874,6432.36,-0.205016,0.240845,0
99.24,-0.185054,0.283348,-16.7368,12.9709,0.258842,-0.0162794,16.5517,-12.6876,6430.65,-0.243298,0.291987,0
107.058,-0.181636,0.283576,-16.7368,12.9709,0.437252,0.0291082,16.5551,-12.6874,6429.03,-0.222013,0.294081,0
118.994,-0.176031,0.284206,-16.7368,12.9709,0.469624,0.0527497,16.5607,-12.6867,6427.27,-0.140073,0.247814,0
126.631,-0.166954,0.285322,-16.7368,12.9709,1.18849,0.146194,16.5698,-12.6856,6425.12,-0.127445,0.365195,0
138.459,-0.156825,0.287486,-16.7368,12.9709,0.856366,0.182985,16.5799,-12.6835,6422.92,-0.220556,0.206555,0
147.266,-0.149387,0.291305,-16.7368,12.9709,0.844534,0.433587,16.5874,-12.6796,6421.23,-0.0473459,0.356035,0
158.803,-0.145101,0.295941,-16.7368,12.9709,0.371498,0.401873,16.5917,-12.675,6419.9,-0.15539,0.309109,0
171.6,-0.141787,0.299302,-16.7368,12.9709,0.258986,0.262602,16.595,-12.6716,6418.47,-0.0645856,0.313193,0
178.817,-0.137125,0.300368,-16.7368,12.9709,0.645916,0.147683,16.5996,-12.6706,6416.96,-0.231535,0.384198,0
190.796,-0.130454,0.299473,-16.7368,12.9709,0.556907,-0.0747157,16.6063,-12.6715,6415.53,-0.122422,0.289313,0
198.788,-0.124191,0.296678,-16.7368,12.9709,0.783657,-0.34968,16.6126,-12.6743,6413.95,-0.162365,0.306895,0
210.448,-0.12077,0.291562,-16.7368,12.9709,0.293457,-0.438796,16.616,-12.6794,6410.91,-0.118437,0.280148,0
219.243,-0.119507,0.283817,-16.7368,12.9709,0.143528,-0.880618,16.6173,-12.6871,6403.67,-0.0788273,0.299502,0
230.441,-0.118994,0.273888,-16.7368,12.9709,0.0458747,-0.886611,16.6178,-12.6971,6389.27,-0.119443,0.213046,0
238.989,-0.119361,0.264732,-16.7368,12.9709,-0.0430082,-1.07122,16.6174,-12.7062,6364.91,-0.0509508,0.220184,0
250.974,-0.122436,0.259803,-16.7368,12.9709,-0.256553,-0.411234,16.6143,-12.7111,6326.02,-0.0348394,0.214564,0
258.991,-0.132152,0.259295,-16.7368,12.9709,-1.21198,-0.0633258,16.6046,-12.7116,6267.04,-0.178682,0.272173,0
270.306,-0.149625,0.26192,-16.7368,12.9709,-1.54421,0.231976,16.5871,-12.709,6185.27,-0.0535573,0.224966,0
279.251,-0.16746,0.267826,-16.7368,12.9709,-1.99389,0.660206,16.5693,-12.7031,6081.07,-0.192183,0.223607,0
290.595,-0.177926,0.278143,-16.7368,12.9709,-0.922551,0.909465,16.5588,-12.6928,5957.21,-0.103059,0.306999,0
298.99,-0.182191,0.293487,-16.7368,12.9709,-0.508072,1.82777,16.5546,-12.6775,5820.44,-0.226591,0.287642,0
310.982,-0.185507,0.312799,-16.7368,12.9709,-0.276486,1.61041,16.5513,-12.6581,5679.24,-0.201724,0.342722,0
318.991,-0.190374,0.333567,-16.7368,12.9709,-0.607778,2.59316,16.5464,-12.6374,5537.72,-0.179928,0.327516,0
330.316,-0.195961,0.354579,-16.7368,12.9709,-0.493258,1.85532,16.5408,-12.6164,5394.01,-0.0809989,0.391271,0
339.26,-0.201454,0.375921,-16.7368,12.9709,-0.614182,2.38618,16.5353,-12.595,5246.27,-0.251924,0.386522,0
351.271,-0.209585,0.397064,-16.7368,12.9709,-0.67701,1.76031,16.5272,-12.5739,5096.69,-0.184113,0.412824,0
359.245,-0.224998,0.419286,-16.7368,12.9709,-1.93288,2.78684,16.5118,-12.5517,4945.73,-0.20706,0.411693,0
371.238,-0.247587,0.444491,-16.7368,12.9709,-1.88349,2.10165,16.4892,-12.5265,4792.43,-0.269299,0.495883,0
379.248,-0.271485,0.469354,-16.7368,12.9709,-2.98358,3.10401,16.4653,-12.5016,4645.24,-0.313049,0.509294,0
391.238,-0.292188,0.489486,-16.7368,12.9709,-1.72666,1.67905,16.4446,-12.4815,4516.58,-0.281075,0.472962,0
399.243,-0.309667,0.50712,-16.7368,12.9709,-2.18349,2.2028,16.4271,-12.4638,4404.52,-0.296874,0.588675,0
410.974,-0.325912,0.527379,-16.7368,12.9709,-1.38478,1.72696,16.4109,-12.4436,4296.67,-0.349123,0.599218,0
423.232,-0.341708,0.549713,-16.7368,12.9709,-1.28863,1.82205,16.3951,-12.4212,4193.06,-0.357505,0.577833,0
430.97,-0.356272,0.568446,-16.7368,12.9709,-1.88217,2.42088,16.3805,-12.4025,4101.44,-0.370814,0.497098,0
442.669,-0.372085,0.580854,-16.7368,12.9709,-1.35161,1.06063,16.3647,-12.3901,4014.64,-0.366532,0.569212,0
451.242,-0.393925,0.589335,-16.7368,12.9709,-2.5476,0.989288,16.3428,-12.3816,3919.78,-0.461775,0.512605,0
463.044,-0.420483,0.59791,-16.7368,12.9709,-2.25027,0.726563,16.3163,-12.373,3819.63,-0.460823,0.649309,0
471.237,-0.444676,0.610419,-16.7368,12.9709,-2.9529,1.52675,16.2921,-12.3605,3727.47,-0.480241,0.610795,0
482.574,-0.46232,0.627725,-16.7368,12.9709,-1.55631,1.5265,16.2744,-12.3432,3650.86,-0.480206,0.648345,0
490.591,-0.475477,0.646513,-16.7368,12.9709,-1.6412,2.3435,16.2613,-12.3244,3586.57,-0.430388,0.710755,0
502.615,-0.487537,0.665064,-16.7368,12.9709,-1.00297,1.54282,16.2492,-12.3059,3524.26,-0.505597,0.66173,0
510.616,-0.498973,0.68513,-16.7368,12.9709,-1.4293,2.50794,16.2378,-12.2858,3456.25,-0.538517,0.800275,0
522.599,-0.510208,0.705383,-16.7368,12.9709,-0.937572,1.69016,16.2266,-12.2656,3385.86,-0.49636,0.675607,0
531.562,-0.523308,0.720921,-16.7368,12.9709,-1.46155,1.73354,16.2135,-12.25,3321.7,-0.524773,0.674489,0
542.297,-0.539184,0.730358,-16.7368,12.9709,-1.47891,0.879079,16.1976,-12.2406,3265.58,-0.543932,0.787089,0
551.234,-0.559041,0.736349,-16.7368,12.9709,-2.22191,0.670438,16.1777,-12.2346,3212.69,-0.547194,0.767085,0
562.294,-0.583842,0.740831,-16.7368,12.9709,-2.24244,0.405199,16.1529,-12.2301,3162.33,-0.656286,0.884051,0
570.32,-0.608657,0.744375,-16.7368,12.9709,-3.0918,0.441593,16.1281,-12.2266,3120.48,-0.624008,0.75364,0
583.251,-0.627678,0.747422,-16.7368,12.9709,-1.47096,0.235621,16.1091,-12.2235,3089.13,-0.588059,0.715443,0
591.259,-0.642158,0.749732,-16.7368,12.9709,-1.80819,0.288447,16.0946,-12.2212,3059.65,-0.608297,0.721695,0
602.199,-0.655729,0.751046,-16.7368,12.9709,-1.24049,0.12012,16.081,-12.2199,3023.21,-0.648251,0.723049,0
611.571,-0.669336,0.75333,-16.7368,12.9709,-1.45183,0.243756,16.0674,-12.2176,2982.01,-0.704613,0.923137,0
622.318,-0.683057,0.76116,-16.7368,12.9709,-1.27677,0.728526,16.0537,-12.2098,2944.35,-0.688777,0.926831,0
630.317,-0.696822,0.780312,-16.7368,12.9709,-1.72077,2.39438,16.0399,-12.1906,2916.07,-0.687302,0.833338,0
642.992,-0.710123,0.812937,-16.7368,12.9709,-1.04945,2.57392,16.0266,-12.158,2896.81,-0.730162,0.765038,0
651.231,-0.723186,0.853652,-16.7368,12.9709,-1.58549,4.94177,16.0136,-12.1173,2878.99,-0.7494,0.667112,0
662.623,-0.739178,0.896739,-16.7368,12.9709,-1.40377,3.78223,15.9976,-12.0742,2853.62,-0.750895,0.73463,0
675.243,-0.765365,0.951381,-16.7368,12.9709,-2.07501,4.3298,15.9714,-12.0196,2820.89,-0.794067,1.02238,0
682.984,-0.80924,1.02907,-16.7368,12.9709,-5.66798,10.0366,15.9275,-11.9419,2791.14,-1.00228,1.36585,0
694.584,-0.866571,1.11414,-16.7368,12.9709,-4.94226,7.33314,15.8702,-11.8568,2771.85,-0.773279,1.42823,0
702.969,-0.916068,1.17962,-16.7368,12.9709,-5.90308,7.80874,15.8207,-11.7913,2760.11,-1.01196,1.23325,0
714.425,-0.941781,1.21816,-16.7368,12.9709,-2.24448,3.36425,15.795,-11.7528,2749.75,-0.929825,1.21122,0
723.232,-0.949367,1.23759,-16.7368,12.9709,-0.861423,2.2064,15.7874,-11.7334,2737.87,-0.971925,1.31224,0
734.428,-0.950703,1.24626,-16.7368,12.9709,-0.119258,0.774177,15.7861,-11.7247,2724.18,-0.961129,1.18226,0
742.979,-0.951448,1.24947,-16.7368,12.9709,-0.0871946,0.376035,15.7853,-11.7215,2709.23,-0.991217,1.27242,0
754.981,-0.953374,1.25054,-16.7368,12.9709,-0.160456,0.0890158,15.7834,-11.7204,2693.51,-0.929758,1.18967,0
762.974,-0.956213,1.25114,-16.7368,12.9709,-0.355145,0.0748753,15.7806,-11.7198,2676.75,-0.90628,1.20653,0
774.304,-0.95865,1.25143,-16.7368,12.9709,-0.215113,0.0253848,15.7781,-11.7195,2659.81,-0.91692,1.27454,0
783.229,-0.96085,1.25129,-16.7368,12.9709,-0.246461,-0.015446,15.7759,-11.7197,2645.89,-0.958166,1.30432,0
794.589,-0.963765,1.25082,-16.7368,12.9709,-0.256603,-0.0407685,15.773,-11.7201,2636.82,-0.938892,1.2326,0
802.977,-0.967911,1.25011,-16.7368,12.9709,-0.494324,-0.0854059,15.7689,-11.7208,2630.86,-1.02769,1.28022,0
814.979,-0.973588,1.24896,-16.7368,12.9709,-0.47299,-0.0958577,15.7632,-11.722,2625.21,-0.992606,1.21532,0
822.976,-0.980004,1.24642,-16.7368,12.9709,-0.802305,-0.317678,15.7568,-11.7245,2618.14,-1.01023,1.25802,0
834.314,-0.986375,1.24071,-16.7368,12.9709,-0.561951,-0.502951,15.7504,-11.7302,2609.59,-0.982219,1.11706,0
843.241,-0.993116,1.23004,-16.7368,12.9709,-0.755125,-1.19621,15.7436,-11.7409,2600.44,-1.01047,1.25253,0
854.79,-1.00054,1.21484,-16.7368,12.9709,-0.643166,-1.31574,15.7362,-11.7561,2591.03,-0.991606,1.15427,0
863.22,-1.00827,1.19884,-16.7368,12.9709,-0.916825,-1.89769,15.7285,-11.7721,2580.73,-0.946028,1.14188,0
874.59,-1.01574,1.18611,-16.7368,12.9709,-0.656748,-1.1197,15.721,-11.7848,2569.89,-0.970312,1.25513,0
882.577,-1.02333,1.17846,-16.7368,12.9709,-0.94986,-0.95845,15.7134,-11.7925,2560.84,-1.05911,1.20849,0
894.577,-1.03254,1.17518,-16.7368,12.9709,-0.767604,-0.273323,15.7042,-11.7958,2555.08,-1.05294,1.17452,0
903.225,-1.04373,1.17431,-16.7368,12.9709,-1.29423,-0.100161,15.693,-11.7966,2551.7,-1.06439,1.17487,0
914.418,-1.05452,1.17419,-16.7368,12.9709,-0.964387,-0.0109594,15.6822,-11.7968,2549.12,-1.03511,1.1591,0
926.97,-1.06189,1.17346,-16.7368,12.9709,-0.586853,-0.0582385,15.6749,-11.7975,2546.65,-1.09324,1.20083,0
934.978,-1.06524,1.17145,-16.7368,12.9709,-0.417799,-0.250041,15.6715,-11.7995,2544.37,-1.08287,1.18851,0
946.971,-1.06608,1.16916,-16.7368,12.9709,-0.0703276,-0.191574,15.6707,-11.8018,2542.47,-1.08435,1.13085,0
954.584,-1.06564,1.168,-16.7368,12.9709,0.0576075,-0.151649,15.6711,-11.8029,2540.87,-1.07373,1.14058,0
966.418,-1.0644,1.16818,-16.7368,12.9709,0.104904,0.0146976,15.6724,-11.8028,2539.36,-1.02215,1.16439,0
975.231,-1.06267,1.16858,-16.7368,12.9709,0.196559,0.0460947,15.6741,-11.8024,2538.02,-1.04441,1.10587,0
986.291,-1.06077,1.16915,-16.7368,12.9709,0.171641,0.0515298,15.676,-11.8018,2536.8,-1.01383,1.22634,0
995.235,-1.05878,1.17278,-16.7368,12.9709,0.222057,0.405421,15.678,-11.7982,2535.06,-1.05473,1.32066,0
1006.3,-1.05588,1.18197,-16.7368,12.9709,0.26208,0.830143,15.6809,-11.789,2532.13,-1.05314,1.14748,0
1014.33,-1.05126,1.19547,-16.7368,12.9709,0.575039,1.68112,15.6855,-11.7755,2528.41,-1.06293,1.20756,0
1026.77,-1.04536,1.21209,-16.7368,12.9709,0.474738,1.33685,15.6914,-11.7588,2525.16,-1.043,1.11598,0
1035.24,-1.03855,1.23655,-16.7368,12.9709,0.804314,2.88878,15.6982,-11.7344,2523.11,-1.08752,1.21445,0
1046.29,-1.02996,1.27338,-16.7368,12.9709,0.776838,3.33103,15.7068,-11.6976,2521.72,-1.11082,1.25193,0
1055.24,-1.0189,1.31956,-16.7368,12.9709,1.2362,5.1598,15.7179,-11.6514,2519.56,-0.987005,1.51393,0
1066.29,-1.00662,1.36326,-16.7368,12.9709,1.11167,3.95602,15.7301,-11.6077,2515.99,-1.00987,1.38678,0
1074.31,-0.995065,1.39147,-16.7368,12.9709,1.44052,3.51673,15.7417,-11.5795,2512.26,-0.967363,1.6054,0
1086.76,-0.984065,1.40458,-16.7368,12.9709,0.883414,1.05294,15.7527,-11.5664,2509.92,-0.991415,1.28687,0
1095.23,-0.972456,1.41149,-16.7368,12.9709,1.37001,0.815497,15.7643,-11.5595,2509.06,-0.938113,1.51175,0
1106.57,-0.961059,1.41707,-16.7368,12.9709,1.00497,0.492234,15.7757,-11.5539,2508.71,-0.957914,1.34889,0
1114.76,-0.95198,1.42141,-16.7368,12.9709,1.10922,0.5301,15.7848,-11.5495,2508.1,-0.934988,1.57189,0
1126.77,-0.945547,1.42354,-16.7368,12.9709,0.535709,0.177456,15.7912,-11.5474,2507.25,-0.928371,1.41152,0
1134.75,-0.940116,1.42193,-16.7368,12.9709,0.68039,-0.201411,15.7966,-11.549,2506.66,-0.93864,1.27721,0
1146.44,-0.934032,1.4156,-16.7368,12.9709,0.520442,-0.541855,15.8027,-11.5553,2506.8,-0.890043,1.36318,0
1155.9,-0.927559,1.40573,-16.7368,12.9709,0.684081,-1.04272,15.8092,-11.5652,2507.84,-0.934688,1.47476,0
1166.77,-0.922005,1.39273,-16.7368,12.9709,0.51129,-1.19682,15.8148,-11.5782,2510.02,-0.866785,1.54322,0
1178.98,-0.918003,1.37477,-16.7368,12.9709,0.327477,-1.47018,15.8188,-11.5962,2513.81,-0.851294,1.43145,0
1186.98,-0.915793,1.35459,-16.7368,12.9709,0.276397,-2.52342,15.821,-11.6164,2519.1,-0.889363,1.34004,0
1198.98,-0.915471,1.33729,-16.7368,12.9709,0.0268237,-1.44194,15.8213,-11.6337,2525.02,-0.922659,1.26618,0
1206.98,-0.916606,1.32283,-16.7368,12.9709,-0.141811,-1.80699,15.8202,-11.6481,2530.38,-0.973502,1.29744,0
1218.28,-0.917714,1.31152,-16.7368,12.9709,-0.0979607,-0.999988,15.819,-11.6594,2534.25,-0.921276,1.31512,0
1227.22,-0.917974,1.30552,-16.7368,12.9709,-0.0291877,-0.672138,15.8188,-11.6654,2536.65,-0.955828,1.29701,0
1238.57,-0.917316,1.30395,-16.7368,12.9709,0.0579847,-0.13812,15.8194,-11.667,2538.32,-0.89757,1.28444,0
1246.98,-0.914822,1.30536,-16.7368,12.9709,0.296617,0.167866,15.8219,-11.6656,2539.51,-0.935828,1.29189,0
1258.97,-0.909543,1.31078,-16.7368,12.9709,0.440124,0.451804,15.8272,-11.6602,2540.09,-0.981371,1.27092,0
1266.97,-0.902529,1.31974,-16.7368,12.9709,0.877699,1.12095,15.8342,-11.6512,2540.12,-0.883699,1.37279,0
1279.22,-0.895889,1.32762,-16.7368,12.9709,0.541964,0.643241,15.8409,-11.6433,2539.69,-0.869629,1.37114,0
1287.22,-0.890391,1.3313,-16.7368,12.9709,0.687165,0.460213,15.8464,-11.6396,2538.86,-0.905313,1.33741,0
1298.96,-0.886015,1.33204,-16.7368,12.9709,0.372745,0.0630912,15.8507,-11.6389,2537.96,-0.806966,1.32116,0
1307.56,-0.88257,1.33188,-16.7368,12.9709,0.400253,-0.0187126,15.8542,-11.6391,2537.41,-0.867574,1.36622,0
1318.57,-0.879547,1.3316,-16.7368,12.9709,0.274662,-0.0258757,15.8572,-11.6393,2537.51,-0.905783,1.23721,0
1326.57,-0.877145,1.3314,-16.7368,12.9709,0.300285,-0.0239716,15.8596,-11.6395,2538.56,-0.863443,1.32017,0
1339.56,-0.875743,1.33148,-16.7368,12.9709,0.107961,0.00558963,15.861,-11.6395,2540.35,-0.877697,1.38137,0
1347.25,-0.87485,1.3319,-16.7368,12.9709,0.116082,0.0554295,15.8619,-11.639,2542.15,-0.933388,1.3331,0
1358.58,-0.874103,1.3325,-16.7368,12.9709,0.0658937,0.0524446,15.8627,-11.6384,2543.38,-0.85817,1.40461,0
1367.54,-0.874064,1.33355,-16.7368,12.9709,0.00435717,0.117408,15.8627,-11.6374,2543.7,-0.844222,1.36234,0
1378.17,-0.875721,1.33614,-16.7368,12.9709,-0.155832,0.243683,15.861,-11.6348,2543.36,-0.950714,1.29283,0
1386.17,-0.879863,1.34007,-16.7368,12.9709,-0.517725,0.490777,15.8569,-11.6309,2543.01,-0.906717,1.21839,0
1398.96,-0.886084,1.34406,-16.7368,12.9709,-0.486552,0.312436,15.8507,-11.6269,2543.06,-0.855004,1.37573,0
1407.22,-0.89441,1.34762,-16.7368,12.9709,-1.00818,0.430862,15.8424,-11.6233,2543.71,-0.846014,1.25809,0
1418.32,-0.906026,1.3505,-22.2683,12.9709,-1.04621,0.259659,-21.3622,-11.6204,2545.02,-0.867579,1.34655,0
1430.99,-0.919388,1.35252,-22.2683,12.9709,-1.0544,0.158994,-21.3489,-11.6184,2546.5,-0.931635,1.35548,0
1439.23,-0.930827,1.35381,-22.2683,12.9709,-1.38788,0.156411,-21.3374,-11.6171,2547.59,-0.937467,1.39066,0
1451.21,-0.938636,1.35443,-22.2683,12.9709,-0.652044,0.0520935,-21.3296,-11.6165,2548.79,-0.956651,1.35742,0
1458.96,-0.943947,1.35363,-22.2683,12.9709,-0.685277,-0.103003,-21.3243,-11.6173,2551.17,-0.988645,1.31494,0
1470.16,-0.9483,1.34898,-22.2683,12.9709,-0.388525,-0.414825,-21.32,-11.622,2554.83,-1.01167,1.36677,0
1479.21,-0.951909,1.33793,-22.2683,12.9709,-0.398687,-1.22179,-21.3163,-11.633,2558.51,-0.969402,1.18466,0
1490.56,-0.955021,1.32196,-22.2683,12.9709,-0.274384,-1.40751,-21.3132,-11.649,2561.03,-0.989469,1.35856,0
1498.96,-0.957567,1.30567,-22.2683,12.9709,-0.303139,-1.93878,-21.3107,-11.6653,2562.32,-0.917383,1.38659,0
1510.99,-0.958533,1.29026,-22.2683,12.9709,-0.080318,-1.28152,-21.3097,-11.6807,2562.99,-0.960298,1.29168,0
1518.99,-0.957827,1.27426,-22.2683,12.9709,0.0883239,-1.99936,-21.3104,-11.6967,2563.66,-0.961778,1.15001,0
1531.22,-0.956676,1.2601,-22.2683,12.9709,0.0940509,-1.15744,-21.3116,-11.7108,2565,-0.908992,1.29344,0
1539.21,-0.956016,1.25125,-22.2683,12.9709,0.0826721,-1.10769,-21.3122,-11.7197,2567.43,-1.00889,1.22848,0
1550.07,-0.95575,1.24682,-22.2683,12.9709,0.0244274,-0.408425,-21.3125,-11.7241,2570.32,-0.963405,1.16804,0
1558.96,-0.955263,1.24431,-22.2683,12.9709,0.0548446,-0.281609,-21.313,-11.7266,2572.88,-0.956074,1.24139,0
1571.21,-0.954034,1.24217,-22.2683,12.9709,0.100366,-0.17537,-21.3142,-11.7288,2575.41,-0.894694,1.28311,0
1577.77,-0.95174,1.24027,-22.2683,12.9709,0.349636,-0.28949,-21.3165,-11.7307,2578.59,-0.944105,1.21342,0
1589.76,-0.948027,1.23988,-22.2683,12.9709,0.309772,-0.0321471,-21.3202,-11.7311,2582.1,-0.938832,1.24441,0
1599.95,-0.942631,1.24088,-22.2683,12.9709,0.529089,0.0978358,-21.3256,-11.7301,2585.61,-0.986228,1.39468,0
1610.42,-0.936142,1.24163,-22.2683,12.9709,0.620307,0.0717152,-21.3321,-11.7293,2589.56,-1.01064,1.38659,0
1618.95,-0.930362,1.2417,-22.2683,12.9709,0.677568,0.00875978,-21.3379,-11.7292,2594.11,-0.939357,1.05759,0
1630.96,-0.926468,1.2416,-22.2683,12.9709,0.324126,-0.00847615,-21.3418,-11.7293,2598.73,-0.922289,1.23963,0
1638.97,-0.924016,1.24106,-22.2683,12.9709,0.306258,-0.0678737,-21.3442,-11.7299,2603.32,-0.820528,1.24717,0
1650.29,-0.922028,1.23903,-22.2683,12.9709,0.175671,-0.179187,-21.3462,-11.7319,2608.23,-0.932792,1.09455,0
1659.21,-0.918299,1.2345,-22.2683,12.9709,0.417611,-0.507405,-21.35,-11.7364,2613.31,-0.974435,1.20643,0
1670.57,-0.909464,1.22749,-22.2683,12.9709,0.778043,-0.617297,-21.3588,-11.7435,2618.82,-0.949652,1.31582,0
1682.97,-0.895264,1.21843,-22.2683,12.9709,1.14533,-0.731018,-21.373,-11.7525,2625.49,-0.90592,1.31386,0
1690.97,-0.881996,1.20889,-22.2683,12.9709,1.65876,-1.19259,-21.3863,-11.7621,2632.55,-0.797732,1.15532,0
1702.6,-0.873307,1.20107,-22.2683,12.9709,0.74715,-0.672604,-21.3949,-11.7699,2638.58,-0.827728,1.25602,0
1710.58,-0.865132,1.19289,-22.2683,12.9709,1.02339,-1.02382,-21.4031,-11.7781,2643.95,-0.855655,1.10795,0
1722.57,-0.856962,1.18126,-22.2683,12.9709,0.681751,-0.970646,-21.4113,-11.7897,2649.61,-0.850789,1.1569,0
1731.21,-0.852008,1.16745,-22.2683,12.9709,0.573288,-1.59786,-21.4162,-11.8035,2655.04,-0.838994,1.31172,0
1742.41,-0.849109,1.15488,-22.2683,12.9709,0.258781,-1.12181,-21.4191,-11.8161,2660.07,-0.883891,1.21403,0
1750.97,-0.843969,1.14579,-22.2683,12.9709,0.601027,-1.06329,-21.4243,-11.8252,2666.7,-0.81748,1.24214,0
1762.97,-0.831525,1.14006,-22.2683,12.9709,1.03689,-0.477039,-21.4367,-11.8309,2678.25,-0.892542,1.10608,0
1770.97,-0.809625,1.13489,-22.2683,12.9709,2.73754,-0.646198,-21.4586,-11.8361,2696.05,-0.760499,1.01194,0
1782.29,-0.785757,1.12671,-22.2683,12.9709,2.10825,-0.722945,-21.4825,-11.8442,2716.78,-0.757733,1.12191,0
1791.23,-0.770284,1.11492,-22.2683,12.9709,1.73137,-1.31882,-21.498,-11.856,2735.6,-0.754488,0.947337,0
1802.41,-0.764184,1.10151,-22.2683,12.9709,0.545552,-1.19949,-21.5041,-11.8694,2751.17,-0.731205,1.0914,0
1810.97,-0.761574,1.08838,-22.2683,12.9709,0.304899,-1.53314,-21.5067,-11.8826,2766.08,-0.81767,1.16702,0
1822.96,-0.758732,1.0763,-22.2683,12.9709,0.237009,-1.00754,-21.5095,-11.8946,2783.61,-0.718305,1.0367,0
1831.02,-0.755324,1.065,-22.2683,12.9709,0.422518,-1.402,-21.5129,-11.9059,2803.85,-0.774142,1.06093,0
1842.28,-0.751168,1.05509,-22.2683,12.9709,0.369282,-0.880505,-21.5171,-11.9159,2824.47,-0.819272,1.05646,0
1851.22,-0.746171,1.04661,-22.2683,12.9709,0.559076,-0.948241,-21.5221,-11.9243,2844.93,-0.793951,1.12761,0
