Resolution,1920,1080,Distance,1,Width,1,Subject,V005GAETSIDI,Test,TSVH-12152016-101551,Calibration,CC9-12152016-101503,Oscann, 4.0.8,libTracker, 1.0.7,crtime, 11072018-171528
Time(ms),GazeX(deg),GazeY(deg),StimulusX(deg),StimulusY(deg),GazeVelX(deg/s),GazeVelY(deg/s),ErrorX(deg),ErrorY(deg),PupilArea(px^2),GazeRawX(deg),GazeRawY(deg),Blinks
10,-0.164977,0.943035,0,0,0,0,-0.164977,0.943035,5867.84,-0.170381,0.943647,0
20,-0.164977,0.943035,0,0,0,0,-0.164977,0.943035,5867.84,-0.146663,1.00238,0
30,-0.16528,0.93408,0,0,-0.0303345,-0.895439,-0.16528,0.93408,5867.84,-0.140565,0.798201,0
40,-0.165502,0.927538,0,0,-0.0221706,-0.654226,-0.165502,0.927538,5867.84,-0.141836,0.9044,0
50,-0.168252,0.902975,0,0,-0.275011,-2.45631,-0.168252,0.902975,5881.68,-0.286199,0.858716,0
60,-0.162007,0.897024,0,0,0.624489,-0.595094,-0.162007,0.897024,5887.9,-0.181604,0.933022,0
70,-0.153213,0.879912,0,0,0.879378,-1.71122,-0.153213,0.879912,5894.94,-0.140801,0.807185,0
80,-0.14408,0.883654,0,0,0.913325,0.374238,-0.14408,0.883654,5903.93,-0.13985,0.914883,0
90,-0.136666,0.899167,0,0,0.741452,1.55125,-0.136666,0.899167,5915.16,-0.141716,0.860024,0
100,-0.132564,0.87448,0,0,0.410148,-2.46868,-0.132564,0.87448,5928.29,-0.0736566,0.706203,0
110,-0.129991,0.870841,0,0,0.257362,-0.363889,-0.129991,0.870841,5941.66,-0.117357,0.921333,0
120,-0.131552,0.812786,0,0,-0.156121,-5.8055,-0.131552,0.812786,5953.25,0.0176824,0.818447,0
130,-0.135934,0.740459,0,0,-0.438186,-7.23265,-0.135934,0.740459,5963.61,-0.190744,0.7122,0
140,-0.142802,0.710241,0,0,-0.686805,-3.02185,-0.142802,0.710241,5974.33,-0.0954588,0.703959,0
150,-0.153424,0.707109,0,0,-1.06225,-0.313158,-0.153424,0.707109,5984.33,-0.187161,0.785387,0
160,-0.169148,0.697749,0,0,-1.5724,-0.93603,-0.169148,0.697749,5992.81,-0.119391,0.561067,0
170,-0.190052,0.698237,0,0,-2.09035,0.0487994,-0.190052,0.698237,6002.88,-0.241002,0.671078,0
180,-0.213069,0.699347,0,0,-2.30174,0.110986,-0.213069,0.699347,6017.58,-0.255916,0.631644,0
190,-0.232508,0.682545,0,0,-1.94391,-1.68016,-0.232508,0.682545,6036.25,-0.415432,0.840392,0
200,-0.242622,0.711491,0,0,-1.01141,2.89459,-0.242622,0.711491,6055.84,-0.104669,0.863216,0
210,-0.246335,0.739784,0,0,-0.371249,2.82925,-0.246335,0.739784,6072.69,-0.161538,0.645582,0
220,-0.2465,0.777694,0,0,-0.016554,3.79101,-0.2465,0.777694,6085.24,-0.24355,0.803597,0
230,-0.245808,0.807971,0,0,0.0691896,3.02775,-0.245808,0.807971,6095.34,-0.23328,0.595382,0
240,-0.245806,0.814202,0,0,0.000200724,0.623062,-0.245806,0.814202,6105.32,-0.415137,0.832989,0
250,-0.242761,0.929594,0,0,0.304539,11.5393,-0.242761,0.929594,6117.58,-0.474338,1.05951,0
260,-0.243216,0.989365,0,0,-0.0455002,5.97704,-0.243216,0.989365,6133.28,-0.263787,1.18721,0
270,-0.24736,0.991947,0,0,-0.414398,0.258204,-0.24736,0.991947,6150.05,-0.205851,1.14878,0
280,-0.252011,0.985428,0,0,-0.465057,-0.651918,-0.252011,0.985428,6165.83,-0.251281,0.672039,0
290,-0.260792,0.830659,0,0,-0.878119,-15.4768,-0.260792,0.830659,6181.31,-0.186299,0.715177,0
300,-0.267665,0.76942,0,0,-0.687298,-6.12392,-0.267665,0.76942,6196.15,-0.187939,0.667258,0
310,-0.277796,0.767438,0,0,-1.01317,-0.198189,-0.277796,0.767438,6209.11,-0.284272,0.62757,0
320,-0.29619,0.771068,0,0,-1.83931,0.363024,-0.29619,0.771068,6221.12,-0.44151,1.10045,0
330,-0.323276,0.840148,0,0,-2.70865,6.908,-0.323276,0.840148,6233.84,-0.322331,0.962722,0
340,-0.361377,0.914779,0,0,-3.81008,7.46307,-0.361377,0.914779,6248.03,-0.320277,0.862262,0
350,-0.402334,1.00245,0,0,-4.09571,8.76741,-0.402334,1.00245,6263.38,-0.442508,1.11954,0
360,-0.433392,1.06249,0,0,-3.10582,6.00362,-0.433392,1.06249,6277.21,-0.485917,1.11977,0
370,-0.448461,1.08552,0,0,-1.50687,2.30306,-0.448461,1.08552,6287.38,-0.470391,1.0969,0
380,-0.45264,1.09106,0,0,-0.41789,0.554407,-0.45264,1.09106,6295.7,-0.608099,1.08309,0
390,-0.452263,1.09105,0,0,0.0376374,-0.00157033,-0.452263,1.09105,6305.63,-0.502246,0.970277,0
400,-0.44793,1.08321,0,0,0.433344,-0.783636,-0.44793,1.08321,6318.26,-0.461187,1.16213,0
410,-0.439014,1.00724,0,0,0.891575,-7.59708,-0.439014,1.00724,6330.5,-0.331509,0.88333,0
420,-0.425699,0.921317,0,0,1.3315,-8.59239,-0.425699,0.921317,6338.74,-0.296383,0.878684,0
430,-0.413317,0.898044,0,0,1.23818,-2.32736,-0.413317,0.898044,6343.26,-0.386476,0.927372,0
440,-0.407186,0.896842,0,0,0.613133,-0.120188,-0.407186,0.896842,6346.61,-0.406178,0.776668,0
450,-0.405803,0.893629,0,0,0.138349,-0.321231,-0.405803,0.893629,6350.66,-0.35775,0.845357,0
460,-0.407482,0.873944,0,0,-0.167901,-1.96852,-0.407482,0.873944,6356.26,-0.413994,0.915849,0
470,-0.412601,0.865506,0,0,-0.511893,-0.843789,-0.412601,0.865506,6363.71,-0.399137,0.85713,0
480,-0.423213,0.873109,0,0,-1.06129,0.760303,-0.423213,0.873109,6372.74,-0.481681,0.627985,0
490,-0.438183,0.876612,0,0,-1.49698,0.350268,-0.438183,0.876612,6382.63,-0.544092,0.869555,0
500,-0.451116,0.879677,0,0,-1.2933,0.306542,-0.451116,0.879677,6392.57,-0.555236,0.893257,0
510,-0.455762,0.934739,0,0,-0.464523,5.50612,-0.455762,0.934739,6401.98,-0.420269,1.02075,0
520,-0.455979,0.937159,0,0,-0.0217522,0.242036,-0.455979,0.937159,6410.81,-0.41785,0.946654,0
530,-0.451101,0.93434,0,0,0.487852,-0.281855,-0.451101,0.93434,6419.26,-0.451001,1.0268,0
540,-0.443968,0.8684,0,0,0.713284,-6.59407,-0.443968,0.8684,6426.82,-0.497803,0.761528,0
550,-0.436964,0.724317,0,0,0.700413,-14.4082,-0.436964,0.724317,6432.9,-0.401549,0.672573,0
560,-0.424251,0.695208,0,0,1.27123,-2.91094,-0.424251,0.695208,6437.46,-0.383319,0.682349,0
570,-0.408319,0.693552,0,0,1.59323,-0.16562,-0.408319,0.693552,6440.43,-0.328012,0.633631,0
580,-0.390173,0.694278,0,0,1.81457,0.0726518,-0.390173,0.694278,6441.84,-0.358841,0.732471,0
590,-0.372642,0.728613,0,0,1.75312,3.43347,-0.372642,0.728613,6442.17,-0.450483,0.798056,0
600,-0.361896,0.756041,0,0,1.07458,2.74283,-0.361896,0.756041,6442.05,-0.348945,0.832844,0
610,-0.358,0.767436,0,0,0.389581,1.13951,-0.358,0.767436,6441.93,-0.365839,0.750174,0
620,-0.357376,0.773758,0,0,0.0624153,0.632123,-0.357376,0.773758,6441.84,-0.242751,0.795118,0
630,-0.35763,0.787437,0,0,-0.0253422,1.36799,-0.35763,0.787437,6441.39,-0.301122,0.690486,0
640,-0.358372,0.801253,0,0,-0.0742708,1.38155,-0.358372,0.801253,6440.3,-0.379573,0.987855,0
650,-0.360613,0.801795,0,0,-0.224051,0.0541956,-0.360613,0.801795,6439.03,-0.318065,0.879596,0
660,-0.366412,0.800153,0,0,-0.579946,-0.164233,-0.366412,0.800153,6438.26,-0.360235,0.803759,0
670,-0.378415,0.826603,0,0,-1.2003,2.64505,-0.378415,0.826603,6438.05,-0.354425,0.782933,0
680,-0.397842,0.828566,0,0,-1.94264,0.196294,-0.397842,0.828566,6438.24,-0.453381,0.711663,0
690,-0.416504,0.8312,0,0,-1.86621,0.263431,-0.416504,0.8312,6438.89,-0.431279,0.853201,0
700,-0.427116,0.875343,0,0,-1.06119,4.41425,-0.427116,0.875343,6439.77,-0.43393,0.952613,0
710,-0.431824,0.913682,0,0,-0.470786,3.83392,-0.431824,0.913682,6440.2,-0.472155,0.945235,0
720,-0.434331,0.915382,0,0,-0.250764,0.170026,-0.434331,0.915382,6439.71,-0.592512,1.01264,0
730,-0.434523,0.914212,0,0,-0.0191691,-0.117056,-0.434523,0.914212,6438.41,-0.413853,0.920069,0
740,-0.433528,0.883852,0,0,0.099501,-3.03596,-0.433528,0.883852,6436.33,-0.381872,0.677016,0
750,-0.431905,0.801414,0,0,0.162256,-8.24386,-0.431905,0.801414,6433.31,-0.480457,0.761326,0
760,-0.425752,0.758378,0,0,0.615374,-4.30358,-0.425752,0.758378,6430,-0.497912,0.970095,0
770,-0.415676,0.756228,0,0,1.00757,-0.215005,-0.415676,0.756228,6427.5,-0.4212,0.749338,0
780,-0.405029,0.756264,0,0,1.06467,0.00365921,-0.405029,0.756264,6426.18,-0.401717,0.715817,0
790,-0.395263,0.767408,0,0,0.976599,1.1144,-0.395263,0.767408,6425.69,-0.36863,0.828393,0
800,-0.388182,0.779824,0,0,0.708087,1.2416,-0.388182,0.779824,6425.58,-0.234731,0.743595,0
810,-0.384206,0.788461,0,0,0.397617,0.863674,-0.384206,0.788461,6425.65,-0.312823,0.809681,0
820,-0.381227,0.797778,0,0,0.297945,0.931666,-0.381227,0.797778,6425.96,-0.254362,0.772915,0
830,-0.37646,0.797977,0,0,0.476636,0.0199146,-0.37646,0.797977,6426.6,-0.559011,0.926691,0
840,-0.368839,0.797475,0,0,0.762132,-0.0501812,-0.368839,0.797475,6427.69,-0.284489,0.796876,0
850,-0.360117,0.792985,0,0,0.872248,-0.449052,-0.360117,0.792985,6429.22,-0.38054,0.813059,0
860,-0.352261,0.792164,0,0,0.785592,-0.0820836,-0.352261,0.792164,6430.9,-0.395467,0.772524,0
870,-0.348697,0.78498,0,0,0.356425,-0.718388,-0.348697,0.78498,6432.4,-0.271569,0.681858,0
880,-0.350197,0.784734,0,0,-0.150055,-0.0245878,-0.350197,0.784734,6433.82,-0.263883,0.716339,0
890,-0.354127,0.786604,0,0,-0.392972,0.187041,-0.354127,0.786604,6435.64,-0.443774,0.85267,0
900,-0.354883,0.825449,0,0,-0.0755911,3.88449,-0.354883,0.825449,6438.02,-0.454785,0.929184,0
910,-0.353038,0.8276,0,0,0.184455,0.215037,-0.353038,0.8276,6440.58,-0.311396,0.93267,0
920,-0.349354,0.839857,0,0,0.368452,1.22568,-0.349354,0.839857,6442.77,-0.227071,0.809237,0
930,-0.348619,0.8513,0,0,0.0734364,1.14438,-0.348619,0.8513,6444.41,-0.273137,0.556501,0
940,-0.353874,0.83069,0,0,-0.525437,-2.06101,-0.353874,0.83069,6445.7,-0.322071,0.809015,0
950,-0.364153,0.830185,0,0,-1.02795,-0.0505645,-0.364153,0.830185,6447,-0.466947,0.840973,0
960,-0.381198,0.830901,0,0,-1.70445,0.0716839,-0.381198,0.830901,6448.42,-0.409989,0.92202,0
970,-0.401793,0.832205,0,0,-2.05955,0.130319,-0.401793,0.832205,6450.02,-0.495597,0.778845,0
980,-0.419398,0.842632,0,0,-1.76051,1.0427,-0.419398,0.842632,6451.88,-0.35962,0.886625,0
990,-0.432399,0.838294,0,0,-1.3001,-0.43374,-0.432399,0.838294,6453.86,-0.303876,0.801387,0
1000,-0.441015,0.851567,0,0,-0.861559,1.32723,-0.441015,0.851567,6455.96,-0.619052,0.865309,0
1010,-0.448707,0.829125,0,0,-0.76925,-2.2442,-0.448707,0.829125,6458.77,-0.441287,0.764955,0
1020,-0.455005,0.827206,0,0,-0.629791,-0.191872,-0.455005,0.827206,6463.29,-0.468392,0.86268,0
1030,-0.460333,0.849368,0,0,-0.532778,2.21623,-0.460333,0.849368,6469.91,-0.350925,0.677821,0
1040,-0.467573,0.822066,0,0,-0.724001,-2.73018,-0.467573,0.822066,6477.01,-0.509648,0.829042,0
1050,-0.473634,0.821063,0,0,-0.606042,-0.100295,-0.473634,0.821063,6482.58,-0.500063,0.921576,0
1060,-0.477867,0.820367,0,0,-0.423353,-0.0696204,-0.477867,0.820367,6486.41,-0.45491,0.730713,0
1070,-0.481194,0.799418,0,0,-0.332735,-2.09496,-0.481194,0.799418,6488.94,-0.599116,0.714627,0
1080,-0.484657,0.771407,0,0,-0.346293,-2.80111,-0.484657,0.771407,6490.44,-0.446746,0.844875,0
1090,-0.48747,0.770763,0,0,-0.281277,-0.0643588,-0.48747,0.770763,6491.36,-0.611439,0.735183,0
1100,-0.489355,0.781157,0,0,-0.188501,1.03943,-0.489355,0.781157,6492.08,-0.43819,0.776432,0
1110,-0.490208,0.790118,0,0,-0.0852789,0.896071,-0.490208,0.790118,6493.2,-0.476114,0.793856,0
1120,-0.490021,0.790483,0,0,0.0187248,0.0365118,-0.490021,0.790483,6496,-0.437736,0.773775,0
1130,-0.488476,0.791111,0,0,0.154496,0.0627723,-0.488476,0.791111,6501.48,-0.459675,0.96162,0
1140,-0.485349,0.807293,0,0,0.312689,1.61827,-0.485349,0.807293,6508.8,-0.626928,0.87303,0
1150,-0.481551,0.820522,0,0,0.379746,1.32282,-0.481551,0.820522,6516.01,-0.572114,0.776785,0
1160,-0.477214,0.826553,0,0,0.433745,0.603124,-0.477214,0.826553,6522.62,-0.654981,0.827754,0
1170,-0.471811,0.851721,0,0,0.540304,2.51683,-0.471811,0.851721,6530.34,-0.505658,0.883783,0
1180,-0.466553,0.879512,0,0,0.525825,2.7791,-0.466553,0.879512,6540.39,-0.384614,0.901937,0
1190,-0.461049,0.886593,0,0,0.550354,0.708058,-0.461049,0.886593,6551.23,-0.421907,0.938899,0
1200,-0.454725,0.891,0,0,0.632398,0.44076,-0.454725,0.891,6561.15,-0.452732,0.811872,0
1210,-0.450724,0.891995,0,0,0.400147,0.0994874,-0.450724,0.891995,6570.4,-0.537525,0.855024,0
1220,-0.451704,0.892037,0,0,-0.0980631,0.00412064,-0.451704,0.892037,6579.93,-0.390794,0.928082,0
1230,-0.462038,0.8915,0,0,-1.03335,-0.0536928,-0.462038,0.8915,6590.74,-0.513534,0.957011,0
1240,-0.488489,0.890691,0,0,-2.64514,-0.0808882,-0.488489,0.890691,6602.64,-0.443249,0.933455,0
1250,-0.530441,0.846872,0,0,-4.19522,-4.38186,-0.530441,0.846872,6613.36,-0.589648,0.754838,0
1260,-0.571876,0.780481,0,0,-4.1435,-6.63914,-0.571876,0.780481,6621.27,-0.71574,0.809193,0
1270,-0.598822,0.755834,0,0,-2.69454,-2.46465,-0.598822,0.755834,6627.5,-0.601067,0.753735,0
1280,-0.613046,0.756415,0,0,-1.42243,0.0581179,-0.613046,0.756415,6634.76,-0.624584,0.747338,0
1290,-0.619416,0.780105,0,0,-0.637012,2.36892,-0.619416,0.780105,6645.37,-0.659009,0.673387,0
1300,-0.62177,0.803786,0,0,-0.23539,2.36812,-0.62177,0.803786,6659.48,-0.620151,0.848461,0
1310,-0.621588,0.868611,0,0,0.0182542,6.48247,-0.621588,0.868611,6674.89,-0.656974,0.931854,0
1320,-0.622615,0.927791,0,0,-0.102797,5.91803,-0.622615,0.927791,6688.04,-0.524772,0.994476,0
1330,-0.624633,1.00198,0,0,-0.201759,7.41907,-0.624633,1.00198,6696.63,-0.566016,1.04326,0
1340,-0.628929,1.00643,0,0,-0.429601,0.444432,-0.628929,1.00643,6701.86,-0.644993,1.18253,0
1350,-0.63086,1.03178,0,0,-0.193127,2.53494,-0.63086,1.03178,6706.4,-0.606718,1.12536,0
1360,-0.632269,1.03039,0,0,-0.140894,-0.138762,-0.632269,1.03039,6711.28,-0.629397,0.913268,0
1370,-0.635092,0.970175,0,0,-0.282289,-6.0213,-0.635092,0.970175,6716.52,-0.698481,0.823245,0
1380,-0.637051,0.917836,0,0,-0.195844,-5.23382,-0.637051,0.917836,6722.04,-0.760883,1.22072,0
1390,-0.637332,0.889657,0,0,-0.0281773,-2.81793,-0.637332,0.889657,6726.9,-0.77837,0.931656,0
1400,-0.640053,0.779593,0,0,-0.272052,-11.0064,-0.640053,0.779593,6730.04,-0.608727,0.653882,0
1410,-0.642572,0.712604,0,0,-0.251945,-6.69889,-0.642572,0.712604,6731.8,-0.575902,0.679383,0
1420,-0.645283,0.709976,0,0,-0.271071,-0.262822,-0.645283,0.709976,6732.95,-0.572732,0.595991,0
1430,-0.651634,0.714485,0,0,-0.635089,0.450947,-0.651634,0.714485,6733.59,-0.547855,0.788956,0
1440,-0.661438,0.812925,0,0,-0.980366,9.84395,-0.661438,0.812925,6733.67,-0.663287,1.05367,0
1450,-0.684756,0.852321,0,0,-2.33181,3.93956,-0.684756,0.852321,6733.16,-0.69342,0.994143,0
1460,-0.721239,0.899914,0,0,-3.64837,4.75936,-0.721239,0.899914,6731.67,-0.793882,0.987777,0
1470,-0.760534,0.932262,0,0,-3.92944,3.23475,-0.760534,0.932262,6729.18,-0.725427,0.811182,0
1480,-0.788407,0.961681,0,0,-2.78735,2.94198,-0.788407,0.961681,6726.45,-0.914531,1.09326,0
1490,-0.804158,0.935298,0,0,-1.57504,-2.63831,-0.804158,0.935298,6723.74,-0.862308,0.83222,0
1500,-0.810684,0.93443,5.20788,0,-0.652622,-0.0868098,-6.01857,0.93443,6720.54,-0.806445,1.18609,0
1510,-0.813741,0.938006,5.20788,0,-0.305717,0.357533,-6.02162,0.938006,6717.2,-0.990773,0.860287,0
1520,-0.814602,0.964452,5.20788,0,-0.0861195,2.64468,-6.02248,0.964452,6714.85,-0.81918,0.976154,0
1530,-0.814837,0.97199,5.20788,0,-0.0234455,0.753743,-6.02272,0.97199,6713.83,-0.802539,0.988139,0
1540,-0.813921,0.947673,5.20788,0,0.0915384,-2.43172,-6.0218,0.947673,6713.56,-0.779339,0.786007,0
1550,-0.806775,0.978111,5.20788,0,0.714584,3.04389,-6.01466,0.978111,6713.55,-0.798882,1.47405,0
1560,-0.794711,0.99495,5.20788,0,1.20644,1.68381,-6.00259,0.99495,6713.73,-0.624549,0.748392,0
1570,-0.778894,1.00748,5.20788,0,1.58167,1.25256,-5.98678,1.00748,6714.31,-0.921886,0.931849,0
1580,-0.756799,1.004,5.20788,0,2.20952,-0.347493,-5.96468,1.004,6715.37,-0.795419,1.09093,0
1590,-0.7232,0.932049,5.20788,0,3.35997,-7.19513,-5.93108,0.932049,6716.53,-0.773659,1.12705,0
1600,-0.677884,0.922786,5.20788,0,4.53158,-0.926331,-5.88577,0.922786,6717.34,-0.708926,0.851656,0
1610,-0.640856,0.821551,5.20788,0,3.70275,-10.1234,-5.84874,0.821551,6717.82,-0.629403,0.732774,0
1620,-0.612646,0.754906,5.20788,0,2.82104,-6.66456,-5.82053,0.754906,6718.13,-0.605978,0.703843,0
1630,-0.583375,0.713128,5.20788,0,2.9271,-4.17782,-5.79126,0.713128,6718.35,-0.480317,0.668509,0
1640,-0.543768,0.709663,5.20788,0,3.96071,-0.346459,-5.75165,0.709663,6718.57,-0.58639,0.706183,0
1650,-0.47862,0.703862,5.20788,0,6.51481,-0.580138,-5.6865,0.703862,6718.78,-0.452218,0.569321,0
1660,-0.302432,0.695668,5.20788,0,17.6188,-0.819413,-5.51031,0.695668,6718.95,-0.506525,0.808855,0
1670,0.180425,0.679262,5.20788,0,48.2857,-1.6406,-5.02746,0.679262,6719.08,-0.23257,0.695505,0
1680,1.10587,0.691299,5.20788,0,92.5446,1.20373,-4.10201,0.691299,6719.18,1.8268,0.606129,0
1690,2.27869,0.732194,5.20788,0,117.282,4.0895,-2.92919,0.732194,6719.06,3.33625,0.730271,0
1700,3.30613,0.75523,5.20788,0,102.744,2.30362,-1.90175,0.75523,6717.97,3.94267,1.03745,0
1710,3.98326,0.728308,5.20788,0,67.7135,-2.69226,-1.22462,0.728308,6714.13,4.46594,0.757267,0
1720,4.34583,0.712097,5.20788,0,36.2564,-1.62108,-0.862056,0.712097,6706.31,4.63715,0.72584,0
1730,4.50149,0.698819,5.20788,0,15.5668,-1.32774,-0.706388,0.698819,6695.26,4.84835,0.653974,0
1740,4.55189,0.649685,5.20788,0,5.03998,-4.91344,-0.655988,0.649685,6683.28,4.68221,0.601052,0
1750,4.56595,0.619342,5.20788,0,1.40525,-3.03432,-0.641935,0.619342,6671.49,4.64844,0.595678,0
1760,4.57025,0.617933,5.20788,0,0.430117,-0.14091,-0.637634,0.617933,6659.08,4.55546,0.630493,0
1770,4.57132,0.61985,5.20788,0,0.10752,0.191774,-0.636559,0.61985,6648.2,4.53053,0.488844,0
1780,4.5735,0.665985,5.20788,0,0.21753,4.61351,-0.634384,0.665985,6642.22,4.57514,0.70318,0
1790,4.57508,0.701697,5.20788,0,0.158127,3.57114,-0.632803,0.701697,6641.49,4.57514,0.70318,1
1800,4.57514,0.70318,5.20788,0,0.00651922,0.148323,-0.632737,0.70318,6648.59,4.57514,0.70318,1
1810,4.57514,0.70318,5.20788,0,5.52877e-07,1.25792e-05,-0.632737,0.70318,6672.74,4.57514,0.70318,1
1820,4.57514,0.70318,5.20788,0,0,0,-0.632737,0.70318,6716.01,4.57514,0.70318,1
1830,4.57514,0.70318,5.20788,0,0,0,-0.632737,0.70318,6759.38,4.57514,0.70318,1
1840,4.57514,0.70318,5.20788,0,0,0,-0.632737,0.70318,6783.73,4.57514,0.70318,1
1850,4.57514,0.70318,5.20788,0,0,0,-0.632737,0.70318,6791.21,4.57514,0.70318,1
1860,4.57514,0.70318,5.20788,0,0,0,-0.632737,0.70318,6792.43,4.57514,0.70318,1
1870,4.57514,0.70318,5.20788,0,0,0,-0.632737,0.70318,6792.53,4.57514,0.70318,1
1880,4.57514,0.70318,5.20788,0,0,0,-0.632737,0.70318,6792.53,4.57514,0.70318,1
1890,4.57514,0.70318,5.20788,0,0,0,-0.632737,0.70318,6777.55,4.57514,0.70318,1
1900,4.57514,0.70318,5.20788,0,0,0,-0.632737,0.70318,6677.55,4.57514,0.70318,1
1910,4.57514,0.70318,5.20788,0,0,0,-0.632737,0.70318,6351.59,4.57514,0.70318,1
1920,4.57514,0.70318,5.20788,0,0,0,-0.632737,0.70318,5769.69,4.57514,0.70318,1
1930,4.57514,0.70318,5.20788,0,0,0,-0.632737,0.70318,5187.78,4.57514,0.70318,1
1940,4.57514,0.70318,5.20788,0,0,0,-0.632737,0.70318,4861.82,4.57514,0.70318,1
1950,4.57514,0.70318,5.20788,0,0,0,-0.632737,0.70318,4761.82,4.57514,0.70318,1
1960,4.57514,0.70318,5.20788,0,0,0,-0.632737,0.70318,4745.53,4.57514,0.70318,1
1970,4.57514,0.70318,5.20788,0,0,0,-0.632737,0.70318,4748.26,4.57514,0.70318,2
1980,4.57589,0.703147,5.20788,0,0.0749233,-0.00332664,-0.631988,0.703147,4782.05,4.57514,0.70318,2
1990,4.58244,0.702856,5.20788,0,0.654693,-0.0290701,-0.625441,0.702856,4916.39,4.57514,0.70318,2
2000,4.61026,0.701621,5.20788,0,2.78235,-0.12357,-0.597618,0.701621,5228.29,-58.9964,61.1732,0
2010,4.68104,0.698476,5.20788,0,7.07711,-0.314497,-0.526847,0.698476,5673.66,5.98775,-0.745214,0
2020,4.79637,0.693243,5.20788,0,11.5338,-0.523286,-0.411509,0.693243,6073.4,5.45317,-0.186549,0
2030,4.91938,0.685247,5.20788,0,12.3005,-0.799532,-0.288504,0.685247,6305.44,5.36556,0.230787,0
2040,5.00457,0.67662,5.20788,0,8.51912,-0.862732,-0.203312,0.67662,6403.17,5.2055,0.287056,0
2050,5.04209,0.672211,5.20788,0,3.7517,-0.440916,-0.165795,0.672211,6446.81,5.08466,0.42079,0
2060,5.05338,0.666398,5.20788,0,1.12892,-0.581334,-0.154506,0.666398,6476.47,5.14698,0.655993,0
2070,5.05983,0.660902,5.20788,0,0.645709,-0.549578,-0.148049,0.660902,6501.67,5.191,0.681028,0
2080,5.06866,0.660288,5.20788,0,0.882601,-0.0613495,-0.139223,0.660288,6522.44,5.00892,0.642576,0
2090,5.07853,0.659847,5.20788,0,0.987553,-0.0441276,-0.129348,0.659847,6537.1,4.9838,0.658519,0
2100,5.08728,0.659472,5.20788,0,0.874477,-0.0374741,-0.120603,0.659472,6546.44,5.08973,0.399431,0
2110,5.09265,0.660159,5.20788,0,0.536818,0.0686348,-0.115235,0.660159,6552.99,5.25586,0.728974,0
2120,5.09528,0.674067,5.20788,0,0.263691,1.39084,-0.112598,0.674067,6559.29,5.15803,0.657087,0
2130,5.09724,0.703342,5.20788,0,0.195722,2.92746,-0.11064,0.703342,6566.99,4.97286,0.733671,0
