Resolution,1920,1080,Distance,57,Width,47.8,Subject,FPM-50829332E,Test,TSMV-05252018-122007,Calibration,CC9-05252018-121833,Oscann, 4.0.12,libTracker, 1.0.9,crtime, 12112018-165131
Time(ms),GazeX(deg),GazeY(deg),StimulusX(deg),StimulusY(deg),GazeVelX(deg/s),GazeVelY(deg/s),ErrorX(deg),ErrorY(deg),PupilArea(px^2),GazeRawX(deg),GazeRawY(deg),Blinks
0,-0.136914,0.565062,0,0,0,0,-0.136914,0.565062,4522.54,-0.201507,0.46491,0
9.961,-0.136914,0.565062,0,0,0,0,-0.136914,0.565062,4522.54,-0.15814,0.604597,0
20.057,-0.136914,0.565062,0,0,0,0,-0.136914,0.565062,4522.54,-0.0459282,0.586942,0
28.558,-0.136914,0.565062,0,0,0,0,-0.136914,0.565062,4522.54,-0.117601,0.590823,0
40.782,-0.127874,0.594207,0,0,0.73957,2.3842,-0.127874,0.594207,4527.46,-0.156284,0.629025,0
52.66,-0.121857,0.594739,0,0,0.50654,0.0447906,-0.121857,0.594739,4527.14,-0.20231,0.708495,0
60.265,-0.119136,0.594289,0,0,0.357803,-0.0592047,-0.119136,0.594289,4526.91,-0.0842116,0.587437,0
72.56,-0.117997,0.593191,0,0,0.092671,-0.0892642,-0.117997,0.593191,4526.52,-0.10226,0.586687,0
80.959,-0.11666,0.590844,0,0,0.159177,-0.279444,-0.11666,0.590844,4525.79,-0.0856731,0.509393,0
91.738,-0.114059,0.58594,0,0,0.241316,-0.455005,-0.114059,0.58594,4524.47,-0.166546,0.65687,0
99.752,-0.110065,0.57796,0,0,0.498307,-0.995715,-0.110065,0.57796,4522.33,-0.156899,0.467335,0
111.752,-0.10472,0.568943,0,0,0.445436,-0.751437,-0.10472,0.568943,4518.94,-0.128356,0.701664,0
119.743,-0.0993978,0.560611,0,0,0.666035,-1.0427,-0.0993978,0.560611,4514.05,-0.0549967,0.587533,0
131.749,-0.0964484,0.552585,0,0,0.245662,-0.668477,-0.0964484,0.552585,4508.63,-0.0274049,0.482215,0
139.739,-0.0958551,0.54354,0,0,0.0742518,-1.13204,-0.0958551,0.54354,4503.88,-0.0501522,0.530909,0
151.737,-0.0958021,0.532223,0,0,0.00441902,-0.943199,-0.0958021,0.532223,4500.12,-0.110561,0.45557,0
159.739,-0.0952889,0.518753,0,0,0.0641279,-1.68337,-0.0952889,0.518753,4497.55,-0.0598845,0.631168,0
171.744,-0.0961745,0.502968,0,0,-0.0737659,-1.31489,-0.0961745,0.502968,4496.16,-0.136024,0.502032,0
179.743,-0.101001,0.483754,0,0,-0.603362,-2.40205,-0.101001,0.483754,4495.16,-0.107902,0.558468,0
191.739,-0.107967,0.46033,0,0,-0.580722,-1.95262,-0.107967,0.46033,4493.15,-0.121649,0.663809,0
199.732,-0.113495,0.435016,0,0,-0.691533,-3.16701,-0.113495,0.435016,4488.92,-0.123004,0.405672,0
211.732,-0.117765,0.414875,0,0,-0.35588,-1.6784,-0.117765,0.414875,4482.48,-0.0530209,0.372169,0
219.742,-0.128759,0.405371,0,0,-1.37255,-1.1866,-0.128759,0.405371,4475.34,-0.117518,0.37937,0
231.743,-0.167511,0.406836,0,0,-3.22907,0.12211,-0.167511,0.406836,4468.92,-0.094124,0.552155,0
239.729,-0.261224,0.419322,0,0,-11.7347,1.56349,-0.261224,0.419322,4463.15,-0.225149,0.406549,0
251.741,-0.40203,0.440671,0,0,-11.7221,1.7773,-0.40203,0.440671,4457.52,-0.769235,0.481483,0
259.738,-0.53056,0.463508,0,0,-16.0724,2.85567,-0.53056,0.463508,4452.16,-0.620387,0.532373,0
271.742,-0.601353,0.481974,0,0,-5.89739,1.53834,-0.601353,0.481974,4447.5,-0.665115,0.460113,0
279.732,-0.624899,0.495023,0,0,-2.94701,1.63311,-0.624899,0.495023,4443.9,-0.628335,0.579581,0
291.737,-0.63,0.503179,0,0,-0.424878,0.679377,-0.63,0.503179,4441.08,-0.627498,0.661174,0
303.734,-0.631126,0.507736,0,0,-0.0938776,0.379868,-0.631126,0.507736,4437.65,-0.588099,0.503447,0
311.734,-0.631974,0.509498,0,0,-0.106032,0.220313,-0.631974,0.509498,4432.51,-0.620521,0.495187,0
323.74,-0.632958,0.508171,0,0,-0.081915,-0.11057,-0.632958,0.508171,4426.18,-0.629165,0.572027,0
331.729,-0.633055,0.503391,0,0,-0.012212,-0.598369,-0.633055,0.503391,4419.06,-0.692004,0.580412,0
343.736,-0.631105,0.492864,0,0,0.162469,-0.876672,-0.631105,0.492864,4410.74,-0.61678,0.424253,0
351.741,-0.62728,0.475567,0,0,0.477759,-2.16077,-0.62728,0.475567,4401.9,-0.690811,0.568969,0
363.74,-0.622371,0.455343,0,0,0.409114,-1.68553,-0.622371,0.455343,4394.09,-0.725336,0.454931,0
371.736,-0.617128,0.436247,0,0,0.6557,-2.38811,-0.617128,0.436247,4388.14,-0.605541,0.462991,0
383.741,-0.613233,0.422127,0,0,0.324484,-1.17619,-0.613233,0.422127,4383.56,-0.517138,0.338797,0
391.728,-0.611367,0.417066,0,0,0.233566,-0.633746,-0.611367,0.417066,4378.32,-0.549636,0.25875,0
403.733,-0.610773,0.41903,0,0,0.049478,0.163633,-0.610773,0.41903,4369.76,-0.59062,0.486284,0
411.747,-0.611851,0.421949,0,0,-0.1345,0.364215,-0.611851,0.421949,4357.61,-0.615624,0.308844,0
423.746,-0.617821,0.424037,0,0,-0.497538,0.174045,-0.617821,0.424037,4344.97,-0.552027,0.314506,0
431.733,-0.633818,0.427966,0,0,-2.00283,0.491877,-0.633818,0.427966,4334.59,-0.630265,0.460576,0
443.741,-0.661274,0.436498,0,0,-2.28654,0.710535,-0.661274,0.436498,4325.72,-0.825057,0.592021,0
451.746,-0.693678,0.448081,0,0,-4.04787,1.44697,-0.693678,0.448081,4315.68,-0.724257,0.509523,0
463.781,-0.721113,0.458485,0,0,-2.27965,0.864517,-0.721113,0.458485,4302.9,-0.767178,0.515992,0
471.758,-0.738045,0.467895,0,0,-2.12251,1.17963,-0.738045,0.467895,4288.9,-0.844481,0.475128,0
483.749,-0.746085,0.477678,0,0,-0.670534,0.815858,-0.746085,0.477678,4277.23,-0.717697,0.333832,0
491.751,-0.749604,0.484156,0,0,-0.43978,0.809474,-0.749604,0.484156,4269.15,-0.697518,0.378772,0
503.754,-0.75096,0.483153,0,0,-0.112943,-0.0835485,-0.75096,0.483153,4262.7,-0.780056,0.454236,0
511.735,-0.750545,0.477003,0,0,0.0519668,-0.770515,-0.750545,0.477003,4255.93,-0.745319,0.447505,0
523.742,-0.748012,0.471761,0,0,0.210982,-0.436638,-0.748012,0.471761,4248.45,-0.73753,0.61553,0
531.735,-0.741151,0.469042,0,0,0.858372,-0.340123,-0.741151,0.469042,4240.57,-0.843363,0.599468,0
543.732,-0.724272,0.466316,0,0,1.40694,-0.227239,-0.724272,0.466316,4232.79,-0.765423,0.54381,0
555.736,-0.696986,0.462035,0,0,2.27303,-0.35664,-0.696986,0.462035,4224.59,-0.610854,0.463762,0
563.737,-0.671542,0.456221,0,0,3.18014,-0.726611,-0.671542,0.456221,4214.93,-0.630156,0.290733,0
575.727,-0.658489,0.446995,0,0,1.08867,-0.769514,-0.658489,0.446995,4204.75,-0.583225,0.431875,0
583.723,-0.656117,0.432237,0,0,0.296579,-1.84563,-0.656117,0.432237,4195.69,-0.632206,0.341593,0
595.724,-0.660345,0.415621,0,0,-0.352248,-1.38454,-0.660345,0.415621,4188.49,-0.637868,0.491462,0
603.725,-0.672802,0.404019,0,0,-1.55702,-1.45007,-0.672802,0.404019,4183.33,-0.761631,0.325312,0
615.725,-0.694097,0.39884,0,0,-1.77453,-0.431629,-0.694097,0.39884,4179.57,-0.762917,0.402719,0
623.715,-0.716289,0.395788,0,0,-2.77749,-0.38192,-0.716289,0.395788,4176.12,-0.692595,0.423018,0
635.725,-0.731948,0.392482,0,0,-1.30385,-0.275284,-0.731948,0.392482,4171.69,-0.746949,0.33641,0
643.714,-0.741581,0.389599,0,0,-1.20572,-0.360853,-0.741581,0.389599,4164.28,-0.835488,0.36038,0
655.722,-0.747378,0.387525,0,0,-0.482774,-0.172751,-0.747378,0.387525,4153.54,-0.821343,0.478249,0
663.721,-0.750749,0.386602,0,0,-0.421462,-0.115331,-0.750749,0.386602,4143.2,-0.785657,0.26187,0
675.722,-0.753356,0.387158,0,0,-0.217224,0.0463235,-0.753356,0.387158,4136.79,-0.717926,0.410116,0
683.724,-0.755905,0.388749,0,0,-0.318585,0.198784,-0.755905,0.388749,4133.77,-0.749074,0.450213,0
695.724,-0.758104,0.39042,0,0,-0.183192,0.139245,-0.758104,0.39042,4132.42,-0.748408,0.388345,0
703.719,-0.760145,0.391547,0,0,-0.255343,0.140974,-0.760145,0.391547,4132,-0.876593,0.395466,0
715.723,-0.763146,0.392186,0,0,-0.249975,0.05323,-0.763146,0.392186,4132.46,-0.746386,0.387329,0
723.724,-0.768064,0.392795,0,0,-0.61467,0.0762132,-0.768064,0.392795,4133.61,-0.813417,0.402376,0
735.719,-0.774676,0.393587,0,0,-0.551259,0.0659805,-0.774676,0.393587,4134.97,-0.777338,0.467772,0
743.707,-0.781822,0.394161,0,0,-0.894549,0.0719021,-0.781822,0.394161,4137.13,-0.761903,0.427089,0
755.719,-0.78991,0.393835,0,0,-0.67332,-0.0271792,-0.78991,0.393835,4141.5,-0.776977,0.507335,0
763.715,-0.800399,0.391261,0,0,-1.31184,-0.32184,-0.800399,0.391261,4148.6,-0.771611,0.332062,0
775.717,-0.811624,0.385708,0,0,-0.935258,-0.462671,-0.811624,0.385708,4157.52,-0.844057,0.320723,0
783.712,-0.819788,0.379606,0,0,-1.02107,-0.763246,-0.819788,0.379606,4166.89,-0.888602,0.466654,0
795.722,-0.823558,0.375947,0,0,-0.313903,-0.304704,-0.823558,0.375947,4176.05,-0.85755,0.367925,0
807.71,-0.824437,0.374508,0,0,-0.0733338,-0.119983,-0.824437,0.374508,4184.53,-0.862539,0.378512,0
815.716,-0.823586,0.37306,0,0,0.106246,-0.180923,-0.823586,0.37306,4191.14,-0.794591,0.371982,0
827.722,-0.820513,0.368447,0,0,0.255989,-0.384227,-0.820513,0.368447,4195.28,-0.88613,0.436509,0
835.72,-0.815587,0.35642,0,0,0.615926,-1.50376,-0.815587,0.35642,4198.31,-0.766871,0.227797,0
847.73,-0.811072,0.335112,0,0,0.375898,-1.77416,-0.811072,0.335112,4202.56,-0.806578,0.391523,0
855.714,-0.807778,0.309639,0,0,0.412547,-3.19057,-0.807778,0.309639,4209.78,-0.79801,0.361415,0
867.726,-0.804109,0.288707,0,0,0.305462,-1.74253,-0.804109,0.288707,4220.33,-0.810619,0.256842,0
875.736,-0.799198,0.275567,0,0,0.613069,-1.64054,-0.799198,0.275567,4232.76,-0.727971,0.269591,0
887.73,-0.793293,0.267786,0,0,0.492367,-0.648724,-0.793293,0.267786,4244.8,-0.774009,0.270048,0
895.724,-0.787362,0.262967,0,0,0.74189,-0.602836,-0.787362,0.262967,4255.37,-0.761214,0.181634,0
907.727,-0.783285,0.259171,0,0,0.339696,-0.316237,-0.783285,0.259171,4264.38,-0.746138,0.226696,0
915.734,-0.780884,0.255244,0,0,0.299862,-0.490494,-0.780884,0.255244,4271.18,-0.830036,0.259677,0
927.738,-0.778803,0.251529,0,0,0.173313,-0.309459,-0.778803,0.251529,4275.34,-0.807719,0.234729,0
935.731,-0.777019,0.247799,0,0,0.223282,-0.466685,-0.777019,0.247799,4278.3,-0.768497,0.315481,0
947.746,-0.775657,0.243527,0,0,0.113348,-0.355508,-0.775657,0.243527,4282.78,-0.860587,0.283891,0
955.758,-0.773758,0.239198,0,0,0.236993,-0.540313,-0.773758,0.239198,4290.65,-0.789155,0.21249,0
967.746,-0.768908,0.235486,0,0,0.404555,-0.309637,-0.768908,0.235486,4301.8,-0.723021,0.231997,0
975.742,-0.759865,0.232569,0,0,1.13093,-0.36487,-0.759865,0.232569,4314.93,-0.751987,0.188727,0
987.746,-0.750006,0.230549,0,0,0.821358,-0.168266,-0.750006,0.230549,4328.12,-0.818373,0.282545,0
996.046,-0.742918,0.229442,0,0,0.853906,-0.133392,-0.742918,0.229442,4339.47,-0.671816,0.211015,0
1008.41,-0.736478,0.228896,0,0,0.520988,-0.0441487,-0.736478,0.228896,4348.84,-0.657137,0.216105,0
1016.4,-0.727461,0.228958,0,0,1.12843,0.00780575,-0.727461,0.228958,4358.29,-0.686889,0.195129,0
1028.98,-0.717512,0.230115,0,0,0.790714,0.0919513,-0.717512,0.230115,4369.56,-0.69393,0.200741,0
1035.5,-0.710186,0.232085,0,0,1.12326,0.302001,-0.710186,0.232085,4382.04,-0.800082,0.25699,0
1048.11,-0.70616,0.233791,0,0,0.319329,0.135343,-0.70616,0.233791,4393.85,-0.767375,0.259442,0
1060.78,-0.70339,0.234544,0,0,0.218687,0.0594206,-0.70339,0.234544,4404.49,-0.715625,0.289469,0
1068.27,-0.700373,0.234662,0,0,0.402731,0.0157235,-0.700373,0.234662,4415.55,-0.75938,0.32715,0
1080.54,-0.696661,0.234662,0,0,0.302398,-4.75906e-06,-0.696661,0.234662,4427.7,-0.665995,0.225355,0
1089,-0.690796,0.233965,0,0,0.693154,-0.0823093,-0.690796,0.233965,4438.3,-0.694551,0.128437,0
1099.73,-0.682345,0.232169,0,0,0.788235,-0.167516,-0.682345,0.232169,4444.87,-0.665753,0.201929,0
1108.33,-0.673961,0.230613,0,0,0.974411,-0.180899,-0.673961,0.230613,4448.65,-0.65832,0.207114,0
1120.78,-0.668353,0.230392,0,0,0.450558,-0.0177114,-0.668353,0.230392,4453.19,-0.715257,0.288211,0
1128.29,-0.665763,0.231343,0,0,0.344849,0.126555,-0.665763,0.231343,4461.14,-0.634586,0.240778,0
1140.55,-0.665007,0.23284,0,0,0.0616056,0.122116,-0.665007,0.23284,4471.93,-0.607504,0.151429,0
1149,-0.665318,0.234444,0,0,-0.0367233,0.189733,-0.665318,0.234444,4482.32,-0.598463,0.200539,0
1159.73,-0.666951,0.236433,0,0,-0.152323,0.185492,-0.666951,0.236433,4489.37,-0.663262,0.256774,0
1168.31,-0.670096,0.238774,0,0,-0.366382,0.272768,-0.670096,0.238774,4492.54,-0.802512,0.296606,0
1180.76,-0.6745,0.240666,0,0,-0.35362,0.151933,-0.6745,0.240666,4493.44,-0.60954,0.255681,0
1188.25,-0.679138,0.2417,0,0,-0.619824,0.138181,-0.679138,0.2417,4493.67,-0.769308,0.179923,0
1200.52,-0.682163,0.241787,0,0,-0.246427,0.00704372,-0.682163,0.241787,4493.83,-0.688323,0.268142,0
1208.94,-0.683122,0.240561,0,0,-0.113837,-0.145619,-0.683122,0.240561,4493.99,-0.71023,0.216387,0
1219.72,-0.682127,0.237731,0,0,0.0923061,-0.262707,-0.682127,0.237731,4494.36,-0.567664,0.116384,0
1228.3,-0.677408,0.232769,0,0,0.549988,-0.578223,-0.677408,0.232769,4495.34,-0.762809,0.231783,0
1240.75,-0.667251,0.225505,0,0,0.815338,-0.583083,-0.667251,0.225505,4496.99,-0.615214,0.260847,0
1248.14,-0.654496,0.218091,0,0,1.72734,-1.00411,-0.654496,0.218091,4498.69,-0.680293,0.342581,0
1260.42,-0.644623,0.212784,0,0,0.804093,-0.432219,-0.644623,0.212784,4500.01,-0.523768,0.156322,0
1268.94,-0.639399,0.208288,0,0,0.613143,-0.527689,-0.639399,0.208288,4500.96,-0.575884,0.119036,0
1281.32,-0.636906,0.202304,0,0,0.201213,-0.483033,-0.636906,0.202304,4501.44,-0.655381,0.0146732,0
1287.48,-0.635199,0.195465,0,0,0.277161,-1.11046,-0.635199,0.195465,4501.32,-0.662398,0.185277,0
1300.23,-0.633704,0.189997,0,0,0.117335,-0.429013,-0.633704,0.189997,4500.47,-0.712104,0.310147,0
1313.07,-0.632713,0.186885,0,0,0.0771381,-0.24234,-0.632713,0.186885,4499.03,-0.641115,0.238115,0
1320.31,-0.632104,0.185577,0,0,0.0840297,-0.180496,-0.632104,0.185577,4497.41,-0.633843,0.19413,0
1332.72,-0.63065,0.184835,0,0,0.117232,-0.0598647,-0.63065,0.184835,4495.4,-0.579297,0.164683,0
1341.32,-0.626245,0.18333,0,0,0.512266,-0.174928,-0.626245,0.18333,4492.62,-0.557136,0.139958,0
1351.84,-0.618406,0.18015,0,0,0.74533,-0.302449,-0.618406,0.18015,4489.46,-0.637844,0.0848685,0
1360.4,-0.610202,0.174653,0,0,0.957511,-0.641497,-0.610202,0.174653,4486.18,-0.623104,0.0670008,0
1373.06,-0.604761,0.165476,0,0,0.429922,-0.725138,-0.604761,0.165476,4482.59,-0.524039,0.373011,0
1380.32,-0.60228,0.152697,0,0,0.341829,-1.76062,-0.60228,0.152697,4479.45,-0.618477,0.405748,0
1392.71,-0.60117,0.140864,0,0,0.0895873,-0.954687,-0.60117,0.140864,4477.74,-0.600278,0.142165,0
1401.32,-0.599471,0.134075,0,0,0.197378,-0.788861,-0.599471,0.134075,4477.23,-0.691389,0.185656,0
1411.84,-0.596443,0.130755,0,0,0.287941,-0.315735,-0.596443,0.130755,4477.26,-0.563009,0.101209,0
1420.43,-0.59258,0.126529,0,0,0.449286,-0.491464,-0.59258,0.126529,4477.95,-0.605802,0.12269,0
1433.12,-0.587823,0.118722,0,0,0.374986,-0.615405,-0.587823,0.118722,4480.18,-0.585365,0.0377769,0
1440.36,-0.582218,0.108292,0,0,0.774266,-1.44081,-0.582218,0.108292,4484.45,-0.565513,0.0399441,0
1452.77,-0.577369,0.0989916,0,0,0.390798,-0.749552,-0.577369,0.0989916,4489.5,-0.548156,0.173645,0
1461.33,-0.574757,0.0934192,0,0,0.304931,-0.650516,-0.574757,0.0934192,4493.89,-0.601383,0.0809765,0
1471.84,-0.573565,0.0910334,0,0,0.113409,-0.227093,-0.573565,0.0910334,4497.47,-0.509462,0.0733118,0
1480.4,-0.572277,0.0909779,0,0,0.150417,-0.00648279,-0.572277,0.0909779,4500.36,-0.598634,0.0742906,0
1493.1,-0.57091,0.093645,0,-5.06683,0.107706,0.210126,-0.57091,5.16047,4502.79,-0.537603,0.0580967,0
1500.31,-0.570321,0.0981684,0,-5.06683,0.0815491,0.626939,-0.570321,5.165,4505.18,-0.584772,0.175377,0
1512.26,-0.5705,0.102364,0,-5.06683,-0.0149316,0.351069,-0.5705,5.16919,4507.65,-0.591984,0.0783914,0
1521.35,-0.570738,0.105427,0,-5.06683,-0.0262053,0.337203,-0.570738,5.17226,4509.71,-0.53131,0.176492,0
1532,-0.570807,0.10745,0,-5.06683,-0.00645169,0.189758,-0.570807,5.17428,4510.98,-0.598325,0.113626,0
1540.73,-0.570797,0.108822,0,-5.06683,0.00106825,0.157342,-0.570797,5.17565,4511.67,-0.553496,0.120831,0
1552.88,-0.570844,0.109433,0,-5.06683,-0.00386702,0.0502381,-0.570844,5.17626,4512.24,-0.586665,0.0154755,0
1564.87,-0.571386,0.108881,0,-5.06683,-0.0452031,-0.046031,-0.571386,5.17571,4512.8,-0.545122,0.0429998,0
1572.46,-0.573426,0.108008,0,-5.06683,-0.268812,-0.115086,-0.573426,5.17484,4512.75,-0.563047,0.100732,0
1584.64,-0.578296,0.107664,0,-5.06683,-0.399859,-0.0282632,-0.578296,5.17449,4511.12,-0.684724,0.239903,0
1592.93,-0.586502,0.107599,0,-5.06683,-0.989853,-0.00781443,-0.586502,5.17443,4507.31,-0.692268,0.159967,0
1603.85,-0.597086,0.106844,0,-5.06683,-0.96901,-0.0690945,-0.597086,5.17367,4502.06,-0.481914,0.0661344,0
1612.4,-0.608097,0.105222,0,-5.06683,-1.287,-0.189655,-0.608097,5.17205,4497.21,-0.59266,0.078732,0
1625.09,-0.617065,0.104134,0,-5.06683,-0.706852,-0.0857102,-0.617065,5.17096,4494.06,-0.620657,0.0388415,0
1632.34,-0.622916,0.104756,0,-5.06683,-0.807191,0.0858152,-0.622916,5.17159,4492.53,-0.728013,0.0876917,0
1644.75,-0.626854,0.106577,0,-5.06683,-0.317326,0.146698,-0.626854,5.17341,4491.53,-0.692425,0.313538,0
1653.38,-0.630512,0.108401,0,-5.06683,-0.423712,0.211338,-0.630512,5.17523,4490.2,-0.61416,0.141298,0
1663.84,-0.634802,0.109963,0,-5.06683,-0.410168,0.149327,-0.634802,5.17679,4488.46,-0.679513,0.0058787,0
1672.43,-0.638892,0.110766,0,-5.06683,-0.476588,0.0936189,-0.638892,5.1776,4487.1,-0.607966,0.0127953,0
1685.36,-0.640862,0.108926,0,-5.06683,-0.152368,-0.142353,-0.640862,5.17576,4486.95,-0.63645,0.155422,0
1692.9,-0.640107,0.100203,0,-5.06683,0.10012,-1.15573,-0.640107,5.16703,4488.43,-0.593698,0.139512,0
1704.4,-0.638236,0.0671087,0,-5.06683,0.162753,-2.87978,-0.638236,5.13394,4493.94,-0.654795,0.00733054,0
1712.65,-0.637477,-0.0521852,0,-5.06683,0.0920511,-14.4529,-0.637477,5.01464,4508.37,-0.650801,0.219278,0
1724.64,-0.640732,-0.388391,0,-5.06683,-0.271517,-28.0452,-0.640732,4.67844,4534.52,-0.67545,-0.17785,0
1732.63,-0.652208,-1.03732,0,-5.06683,-1.43676,-81.2383,-0.652208,4.02951,4566.87,-0.533963,-2.76656,0
1744.64,-0.672978,-1.84773,0,-5.06683,-1.72949,-67.4833,-0.672978,3.2191,4593.8,-0.628126,-2.99198,0
1752.63,-0.695481,-2.48697,0,-5.06683,-2.81394,-79.9351,-0.695481,2.57986,4609.28,-0.661332,-3.12473,0
1764.64,-0.710159,-2.80232,0,-5.06683,-1.22257,-26.2657,-0.710159,2.26451,4616.49,-0.74349,-2.78154,0
1772.63,-0.717271,-2.90292,0,-5.06683,-0.890378,-12.5964,-0.717271,2.16391,4620.97,-0.649606,-2.77299,0
1784.64,-0.723134,-2.92736,0,-5.06683,-0.487958,-2.03376,-0.723134,2.13947,4626.17,-0.642031,-2.89765,0
1793.11,-0.730091,-2.93057,0,-5.06683,-0.821965,-0.379543,-0.730091,2.13626,4634.48,-0.751541,-2.9526,0
1805.71,-0.735786,-2.92681,0,-5.06683,-0.451744,0.298738,-0.735786,2.14002,4646.48,-0.705051,-2.96438,0
1817.07,-0.739365,-2.92355,0,-5.06683,-0.31521,0.28723,-0.739365,2.14328,4658.41,-0.866498,-2.92136,0
1824.75,-0.744008,-2.92361,0,-5.06683,-0.604504,-0.00822906,-0.744008,2.14322,4666.84,-0.92081,-2.95468,0
1836.63,-0.753603,-2.92676,0,-5.06683,-0.807487,-0.264954,-0.753603,2.14007,4673.19,-0.72292,-2.84658,0
1845.32,-0.768176,-2.93189,0,-5.06683,-1.67618,-0.590738,-0.768176,2.13494,4680.74,-0.689569,-2.86987,0
1857.33,-0.783666,-2.94251,0,-5.06683,-1.29011,-0.884197,-0.783666,2.12432,4691.78,-0.615381,-2.8955,0
1865.35,-0.797349,-2.98133,0,-5.06683,-1.70573,-4.83896,-0.797349,2.0855,4708.39,-0.778801,-2.90204,0
1876.69,-0.813026,-3.09726,0,-5.06683,-1.38278,-10.2257,-0.813026,1.96957,4731.94,-0.820088,-2.96509,0
1884.27,-0.838057,-3.32264,0,-5.06683,-3.30096,-29.7217,-0.838057,1.74419,4759.05,-0.853658,-3.5,0
1896.18,-0.872787,-3.59914,0,-5.06683,-2.91579,-23.214,-0.872787,1.46769,4781.92,-0.914595,-4.23273,0
1904.2,-0.907741,-3.81259,0,-5.06683,-4.36212,-26.6376,-0.907741,1.25424,4797.06,-1.0211,-3.94945,0
1916.2,-0.936395,-3.91824,0,-5.06683,-2.38789,-8.80427,-0.936395,1.14859,4808.33,-0.99045,-3.95278,0
1924.32,-0.959251,-3.95683,0,-5.06683,-2.81369,-4.75136,-0.959251,1.11,4820.81,-0.976116,-3.83592,0
1936.76,-0.974855,-3.97456,0,-5.06683,-1.25386,-1.42472,-0.974855,1.09227,4836.94,-0.916044,-3.91848,0
1944.95,-0.981977,-3.98735,0,-5.06683,-0.869756,-1.56193,-0.981977,1.07948,4854.88,-0.994058,-4.06462,0
1956.4,-0.983545,-3.99818,0,-5.06683,-0.136938,-0.945691,-0.983545,1.06865,4869.53,-0.915553,-4.02226,0
1965.34,-0.982838,-4.0129,0,-5.06683,0.0790913,-1.64787,-0.982838,1.05393,4879.49,-1.05982,-3.98407,0
1975.84,-0.980153,-4.03456,0,-5.06683,0.255785,-2.06257,-0.980153,1.03227,4890.07,-1.01071,-3.99034,0
1984.6,-0.971625,-4.0566,0,-5.06683,0.973029,-2.515,-0.971625,1.01023,4905.31,-1.03905,-4.06589,0
1996.86,-0.953597,-4.07226,0,-5.06683,1.46985,-1.27714,-0.953597,0.994567,4921.55,-0.98205,-4.0729,0
