Resolution,1920,1080,Distance,58,Width,47.5,Subject,V006GAAURA,Test,TSVH-03062018-104748,Calibration,CC9-03062018-104702,Oscann, 4.0.8,libTracker, 1.0.7,crtime, 11072018-163730
Time(ms),GazeX(deg),GazeY(deg),StimulusX(deg),StimulusY(deg),GazeVelX(deg/s),GazeVelY(deg/s),ErrorX(deg),ErrorY(deg),PupilArea(px^2),GazeRawX(deg),GazeRawY(deg),Blinks
0,0.307215,0.333408,0,0,0,0,0.307215,0.333408,3631.18,0.299228,0.333556,0
7.707,0.307215,0.333408,0,0,0,0,0.307215,0.333408,3631.18,0.344245,0.26678,0
19.224,0.307588,0.339087,0,0,0.0323929,0.493095,0.307588,0.339087,3631.18,0.347649,0.352703,0
27.204,0.308862,0.358468,0,0,0.159544,2.42861,0.308862,0.358468,3631.18,0.384671,0.500283,0
39.188,0.312803,0.380853,0,0,0.328927,1.86795,0.312803,0.380853,3637.23,0.259365,0.393637,0
47.003,0.314711,0.394407,0,0,0.244054,1.73435,0.314711,0.394407,3637.94,0.283916,0.410529,0
58.713,0.31424,0.395407,0,0,-0.040211,0.0853422,0.31424,0.395407,3638.1,0.302942,0.390075,0
67.68,0.311376,0.395749,0,0,-0.319353,0.0381622,0.311376,0.395749,3637.69,0.351473,0.427996,0
78.837,0.306143,0.391427,0,0,-0.469039,-0.387379,0.306143,0.391427,3636.12,0.242692,0.314159,0
87.406,0.301562,0.389422,0,0,-0.53461,-0.233961,0.301562,0.389422,3632.95,0.28469,0.39259,0
99.399,0.297215,0.361222,0,0,-0.362496,-2.3514,0.297215,0.361222,3628.97,0.29929,0.304769,0
107.399,0.293634,0.329342,0,0,-0.447535,-3.98493,0.293634,0.329342,3625,0.332164,0.299594,0
118.577,0.292828,0.32802,0,0,-0.0721471,-0.118268,0.292828,0.32802,3620.02,0.354481,0.329221,0
127.419,0.29519,0.328332,0,0,0.267185,0.0352339,0.29519,0.328332,3612.06,0.356007,0.314179,0
138.993,0.305013,0.340365,0,0,0.848651,1.03971,0.305013,0.340365,3600.2,0.280172,0.357837,0
147.412,0.328461,0.414406,0,0,2.78519,8.7945,0.328461,0.414406,3585.6,0.134505,0.493021,0
159.399,0.363196,0.496334,0,0,2.89769,6.83473,0.363196,0.496334,3571.02,0.26783,0.518009,0
167.387,0.401266,0.5209,0,0,4.76588,3.07532,0.401266,0.5209,3558.73,0.455146,0.566902,0
179.416,0.432743,0.520601,0,0,2.61683,-0.024792,0.432743,0.520601,3548.15,0.497753,0.578644,0
188.365,0.449961,0.519249,0,0,1.92399,-0.151143,0.449961,0.519249,3537.14,0.517543,0.488667,0
199.016,0.456254,0.502384,0,0,0.590842,-1.58342,0.456254,0.502384,3524.46,0.457536,0.415708,0
207.245,0.459234,0.457186,0,0,0.362142,-5.49251,0.459234,0.457186,3508.77,0.549815,0.474437,0
219.194,0.464842,0.433467,0,0,0.469326,-1.98503,0.464842,0.433467,3489.23,0.48502,0.409297,0
231.406,0.471448,0.427737,0,0,0.540932,-0.469183,0.471448,0.427737,3468.65,0.431583,0.454048,0
239.478,0.476837,0.427261,0,0,0.667555,-0.0589685,0.476837,0.427261,3450.98,0.423646,0.392442,0
250.585,0.481214,0.425765,0,0,0.394115,-0.13475,0.481214,0.425765,3437.66,0.460336,0.424399,0
259.419,0.48682,0.424544,0,0,0.63458,-0.138111,0.48682,0.424544,3427.16,0.481326,0.369816,0
271.186,0.494947,0.421467,0,0,0.690624,-0.261513,0.494947,0.421467,3416.6,0.496546,0.440524,0
279.205,0.504213,0.423885,0,0,1.1555,0.301487,0.504213,0.423885,3405.81,0.558306,0.42919,0
291.199,0.510427,0.426131,0,0,0.51811,0.187262,0.510427,0.426131,3397.19,0.562793,0.416679,0
299.488,0.513271,0.434693,0,0,0.343176,1.0329,0.513271,0.434693,3391.25,0.559496,0.45174,0
310.703,0.514156,0.447823,0,0,0.0788367,1.17081,0.514156,0.447823,3386.36,0.575692,0.451958,0
320.076,0.511059,0.448513,0,0,-0.330416,0.0736033,0.511059,0.448513,3381.87,0.540175,0.467789,0
331.194,0.499843,0.448659,0,0,-1.00882,0.0130881,0.499843,0.448659,3378.43,0.502706,0.47079,0
340.025,0.476841,0.44218,0,0,-2.60467,-0.733595,0.476841,0.44218,3376.45,0.322474,0.419799,0
351.309,0.448429,0.436827,0,0,-2.51784,-0.474393,0.448429,0.436827,3375.63,0.401215,0.446199,0
359.243,0.425202,0.437209,0,0,-2.92756,0.0481684,0.425202,0.437209,3375.44,0.324804,0.408548,0
370.764,0.408985,0.431064,0,0,-1.40762,-0.533421,0.408985,0.431064,3375.58,0.430635,0.443816,0
379.231,0.396383,0.431357,0,0,-1.48831,0.0346135,0.396383,0.431357,3376.22,0.320754,0.487073,0
390.861,0.386277,0.433429,0,0,-0.869032,0.178195,0.386277,0.433429,3377.7,0.357901,0.415403,0
399.489,0.380304,0.432858,0,0,-0.692204,-0.0661698,0.380304,0.432858,3380.14,0.409595,0.407991,0
411.425,0.377513,0.427815,0,0,-0.233882,-0.422503,0.377513,0.427815,3383.69,0.45948,0.432652,0
419.41,0.376062,0.422765,0,0,-0.181644,-0.632541,0.376062,0.422765,3389.05,0.367325,0.431452,0
430.712,0.375243,0.41713,0,0,-0.0724494,-0.498545,0.375243,0.41713,3396.02,0.343916,0.35961,0
439.423,0.375507,0.41666,0,0,0.0302703,-0.0539844,0.375507,0.41666,3402.49,0.397599,0.429325,0
451.008,0.375726,0.41136,0,0,0.0189173,-0.457502,0.375726,0.41136,3407.05,0.384838,0.396387,0
459.41,0.376015,0.404315,0,0,0.0343922,-0.838441,0.376015,0.404315,3411.03,0.361482,0.482754,0
471.417,0.377809,0.403687,0,0,0.149382,-0.0523141,0.377809,0.403687,3416.26,0.31831,0.424373,0
483.419,0.380987,0.398009,0,0,0.264836,-0.473062,0.380987,0.398009,3423.32,0.368754,0.346841,0
491.399,0.386323,0.403336,0,0,0.668606,0.667569,0.386323,0.403336,3431.74,0.385385,0.374932,0
502.696,0.393291,0.402925,0,0,0.616792,-0.036404,0.393291,0.402925,3440.93,0.400854,0.389563,0
511.665,0.404198,0.393524,0,0,1.21609,-1.04818,0.404198,0.393524,3451.37,0.389912,0.444022,0
522.995,0.421346,0.385096,0,0,1.51352,-0.743862,0.421346,0.385096,3463.55,0.483926,0.448085,0
531.404,0.44154,0.380789,0,0,2.40142,-0.512165,0.44154,0.380789,3475.54,0.546344,0.369794,0
543.395,0.457559,0.37252,0,0,1.33594,-0.689639,0.457559,0.37252,3484.61,0.486633,0.369892,0
551.425,0.466915,0.369928,0,0,1.16509,-0.322766,0.466915,0.369928,3490.61,0.456305,0.273039,0
562.59,0.470636,0.360034,0,0,0.333317,-0.886184,0.470636,0.360034,3495.59,0.469597,0.331241,0
571.683,0.471686,0.344755,0,0,0.115529,-1.68028,0.471686,0.344755,3501.09,0.474608,0.369504,0
583.006,0.472449,0.335046,0,0,0.0673782,-0.85747,0.472449,0.335046,3506.87,0.484098,0.296869,0
591.204,0.473503,0.334973,0,0,0.128504,-0.00889673,0.473503,0.334973,3511.68,0.433215,0.308358,0
603.2,0.47519,0.343272,0,0,0.140612,0.691828,0.47519,0.343272,3514.9,0.459433,0.380696,0
611.211,0.478219,0.343931,0,0,0.378104,0.0822009,0.478219,0.343931,3517.11,0.562631,0.345637,0
622.858,0.485345,0.353465,0,0,0.611869,0.818653,0.485345,0.353465,3519.08,0.543094,0.337039,0
631.436,0.495964,0.362984,0,0,1.23794,1.10961,0.495964,0.362984,3520.96,0.532402,0.365667,0
642.855,0.508657,0.384354,0,0,1.11156,1.87143,0.508657,0.384354,3522.38,0.479486,0.47409,0
651.425,0.520361,0.407901,0,0,1.36571,2.7477,0.520361,0.407901,3523.13,0.53772,0.464368,0
663.415,0.528635,0.417821,0,0,0.690098,0.82734,0.528635,0.417821,3523.46,0.537753,0.400679,0
671.41,0.533615,0.426494,0,0,0.622804,1.08478,0.533615,0.426494,3523.63,0.534396,0.370577,0
683.199,0.536076,0.435652,0,0,0.208787,0.776823,0.536076,0.435652,3523.63,0.515555,0.466743,0
691.205,0.53689,0.436303,0,0,0.101617,0.0813471,0.53689,0.436303,3523.23,0.515228,0.440345,0
702.938,0.537988,0.443243,0,0,0.0936139,0.59151,0.537988,0.443243,3522.52,0.528186,0.455075,0
711.472,0.539343,0.450726,0,0,0.158759,0.876828,0.539343,0.450726,3521.64,0.548174,0.427844,0
723.479,0.540788,0.456235,0,0,0.120318,0.458833,0.540788,0.456235,3520.55,0.547912,0.458083,0
735.043,0.541836,0.45627,0,0,0.0906186,0.00295607,0.541836,0.45627,3519.3,0.54149,0.466562,0
743.437,0.542422,0.45214,0,0,0.0698451,-0.491928,0.542422,0.45214,3518.18,0.539435,0.469287,0
754.724,0.542537,0.438441,0,0,0.0102254,-1.2137,0.542537,0.438441,3517.31,0.561484,0.379451,0
763.434,0.543901,0.439675,0,0,0.156575,0.14168,0.543901,0.439675,3516.51,0.56519,0.397795,0
774.864,0.545132,0.439927,0,0,0.107722,0.0220319,0.545132,0.439927,3515.73,0.586428,0.41542,0
783.427,0.546718,0.446145,0,0,0.18513,0.726128,0.546718,0.446145,3515.19,0.515217,0.474386,0
795.208,0.549577,0.476384,0,0,0.242743,2.56671,0.549577,0.476384,3515.11,0.516248,0.490187,0
803.205,0.550031,0.494982,0,0,0.0567166,2.32569,0.550031,0.494982,3515.36,0.554539,0.534089,0
815.693,0.54718,0.509829,0,0,-0.228267,1.18892,0.54718,0.509829,3515.7,0.555335,0.512057,0
824.401,0.541298,0.516593,0,0,-0.675462,0.776718,0.541298,0.516593,3516.39,0.601608,0.507233,0
835.02,0.536714,0.52553,0,0,-0.431691,0.841649,0.536714,0.52553,3518.02,0.562778,0.536392,0
843.424,0.53579,0.517032,0,0,-0.110007,-1.01128,0.53579,0.517032,3520.59,0.500382,0.477928,0
855.434,0.539018,0.51579,0,0,0.268777,-0.103376,0.539018,0.51579,3523.3,0.427619,0.538411,0
863.503,0.542147,0.514272,0,0,0.387815,-0.18817,0.542147,0.514272,3525.78,0.392143,0.533417,0
874.63,0.543637,0.505812,0,0,0.133943,-0.760317,0.543637,0.505812,3528.5,0.484866,0.483845,0
883.482,0.545593,0.495206,0,0,0.220974,-1.19817,0.545593,0.495206,3531.65,0.563453,0.486789,0
895.246,0.550074,0.469217,0,0,0.38083,-2.20918,0.550074,0.469217,3534.99,0.552305,0.414173,0
903.219,0.558349,0.446311,0,0,1.03793,-2.87293,0.558349,0.446311,3538.79,0.572516,0.493166,0
915.223,0.566483,0.437689,0,0,0.677651,-0.718238,0.566483,0.437689,3543.38,0.585819,0.384622,0
923.088,0.57059,0.433967,0,0,0.522163,-0.473287,0.57059,0.433967,3548.06,0.612577,0.465711,0
934.866,0.571424,0.433452,0,0,0.070821,-0.0436567,0.571424,0.433452,3551.75,0.587682,0.400398,0
943.714,0.56768,0.425916,0,0,-0.423212,-0.851715,0.56768,0.425916,3554.56,0.575307,0.433191,0
954.732,0.55278,0.426188,0,0,-1.35227,0.0246363,0.55278,0.426188,3557.32,0.577584,0.38672,0
963.435,0.515583,0.429489,0,0,-4.27411,0.379255,0.515583,0.429489,3560.4,0.465192,0.421852,0
975.455,0.462129,0.473604,0,0,-4.44706,3.6702,0.462129,0.473604,3563.8,0.215248,0.520184,0
987.453,0.412927,0.510813,0,0,-4.1009,3.10128,0.412927,0.510813,3567.72,0.358269,0.514571,0
995.294,0.383219,0.517598,0,0,-3.78878,0.865281,0.383219,0.517598,3572.38,0.395128,0.523614,0
1006.74,0.369726,0.522707,0,0,-1.17899,0.44643,0.369726,0.522707,3578.15,0.338219,0.523611,0
1015.46,0.361261,0.523248,0,0,-0.971075,0.0620687,0.361261,0.523248,3585.26,0.36911,0.492709,0
1026.88,0.353529,0.522032,0,0,-0.676641,-0.106402,0.353529,0.522032,3592.59,0.391712,0.531088,0
1035.44,0.343636,0.485782,0,0,-1.15619,-4.23638,0.343636,0.485782,3598.43,0.384031,0.435166,0
1047.48,0.333173,0.445162,0,0,-0.86918,-3.37433,0.333173,0.445162,3603.09,0.309602,0.461712,0
1055.5,0.325637,0.443499,0,0,-0.939644,-0.207344,0.325637,0.443499,3608.02,0.299163,0.400506,0
1066.66,0.318968,0.438615,0,0,-0.597105,-0.437288,0.318968,0.438615,3612.79,0.345283,0.414455,0
1075.47,0.314093,0.443604,0,0,-0.553922,0.566837,0.314093,0.443604,3616.1,0.312079,0.473934,0
1087.06,0.30962,0.436043,0,0,-0.385691,-0.652092,0.30962,0.436043,3617.91,0.299256,0.384942,0
1095.47,0.307506,0.446246,0,0,-0.251578,1.21425,0.307506,0.446246,3618.85,0.322238,0.454441,0
1107.45,0.306088,0.453184,0,0,-0.118307,0.5789,0.306088,0.453184,3619.49,0.305667,0.452777,0
1115.51,0.303676,0.443849,0,0,-0.299331,-1.15812,0.303676,0.443849,3620.17,0.23446,0.413748,0
1126.73,0.300642,0.45377,0,0,-0.27027,0.883817,0.300642,0.45377,3620.9,0.293972,0.457368,0
1135.46,0.292996,0.456063,0,0,-0.87612,0.262702,0.292996,0.456063,3621.63,0.303792,0.428494,0
1147.04,0.282287,0.461155,0,0,-0.924746,0.439718,0.282287,0.461155,3622.75,0.263742,0.553376,0
1155.45,0.273509,0.473103,0,0,-1.04387,1.42092,0.273509,0.473103,3624.7,0.349018,0.467129,0
1167.44,0.269496,0.486372,0,0,-0.334619,1.10661,0.269496,0.486372,3627.53,0.265397,0.49376,0
1175.5,0.268454,0.490402,0,0,-0.129431,0.500296,0.268454,0.490402,3631.79,0.267097,0.545025,0
1186.74,0.268915,0.490534,0,0,0.0409479,0.011744,0.268915,0.490534,3637.86,0.251922,0.475539,0
1195.45,0.27091,0.489414,0,0,0.229274,-0.128597,0.27091,0.489414,3644.46,0.269023,0.489502,0
1206.88,0.272674,0.463854,0,0,0.154251,-2.23512,0.272674,0.463854,3650.77,0.286378,0.439486,0
1215.5,0.272878,0.419341,0,0,0.0237269,-5.16923,0.272878,0.419341,3657.43,0.311683,0.319238,0
1227.45,0.273582,0.405731,0,0,0.0588275,-1.13865,0.273582,0.405731,3664.2,0.296169,0.350716,0
1239.44,0.273519,0.400058,0,0,-0.00520811,-0.47307,0.273519,0.400058,3669.9,0.301646,0.391596,0
1247.44,0.27254,0.398799,0,0,-0.122354,-0.157302,0.27254,0.398799,3674.23,0.276951,0.414927,0
1258.75,0.269305,0.397471,0,0,-0.28616,-0.117439,0.269305,0.397471,3677.7,0.268893,0.428175,0
1267.46,0.263628,0.396731,0,0,-0.651344,-0.0849629,0.263628,0.396731,3680.78,0.226497,0.390299,0
1278.88,0.256578,0.375124,0,0,-0.61754,-1.8925,0.256578,0.375124,3683.78,0.227623,0.343859,0
1288.12,0.251683,0.348974,0,0,-0.530013,-2.83168,0.251683,0.348974,3687.38,0.257059,0.345871,0
1298.63,0.250562,0.347902,0,0,-0.106666,-0.101955,0.250562,0.347902,3692.32,0.248307,0.348583,0
1306.63,0.250268,0.347947,0,0,-0.0366745,0.00557981,0.250268,0.347947,3697.8,0.22109,0.35059,0
1318.63,0.250443,0.348777,0,0,0.0145676,0.069201,0.250443,0.348777,3701.9,0.197863,0.252264,0
1326.64,0.251413,0.351382,0,0,0.121096,0.325301,0.251413,0.351382,3703.92,0.25816,0.371079,0
1338.62,0.253672,0.362201,0,0,0.188398,0.902358,0.253672,0.362201,3704.68,0.284797,0.351773,0
1348.1,0.256703,0.374116,0,0,0.319921,1.2575,0.256703,0.374116,3705.34,0.279663,0.447688,0
1358.75,0.260187,0.383496,0,0,0.327104,0.880705,0.260187,0.383496,3706.83,0.25229,0.383654,0
1366.75,0.264456,0.389642,0,0,0.533409,0.767888,0.264456,0.389642,3709.45,0.28685,0.39573,0
1379.23,0.269954,0.390147,0,0,0.440565,0.0404592,0.269954,0.390147,3712.2,0.260889,0.348943,0
1387.79,0.277488,0.400563,0,0,0.88034,1.21721,0.277488,0.400563,3713.83,0.343719,0.42039,0
1398.71,0.285625,0.400698,0,0,0.745323,0.0123731,0.285625,0.400698,3714.34,0.274298,0.438224,0
1407.51,0.29691,0.398531,0,0,1.28279,-0.246384,0.29691,0.398531,3714.28,0.289202,0.401798,0
1419.48,0.309953,0.356802,0,0,1.08925,-3.48462,0.309953,0.356802,3713.66,0.339117,0.239665,0
1427.48,0.321742,0.298594,0,0,1.47425,-7.27969,0.321742,0.298594,3712.09,0.314789,0.226269,0
1438.64,0.331831,0.295716,0,0,0.903689,-0.257791,0.331831,0.295716,3709.53,0.435366,0.298576,0
1447.47,0.336678,0.295515,0,0,0.549334,-0.0226825,0.336678,0.295515,3706.54,0.327726,0.274512,0
1459.04,0.338107,0.295456,0,0,0.123451,-0.00509149,0.338107,0.295456,3703.9,0.379532,0.328189,0
1467.44,0.336967,0.295159,0,0,-0.135735,-0.0353715,0.336967,0.295159,3702.28,0.396079,0.308123,0
1479.46,0.332471,0.286799,0,0,-0.374178,-0.695774,0.332471,0.286799,3701.64,0.351896,0.26,0
1491.46,0.323277,0.270563,0,0,-0.766101,-1.35286,0.323277,0.270563,3701.49,0.338666,0.237039,0
1499.24,0.310862,0.270361,20.1875,0,-1.59573,-0.0260313,-19.8767,0.270361,3701.46,0.274062,0.247934,0
1510.76,0.298572,0.271316,20.1875,0,-1.06658,0.0829132,-19.889,0.271316,3701.48,0.298544,0.216947,0
1519.53,0.291753,0.28324,20.1875,0,-0.777992,1.36042,-19.8958,0.28324,3701.69,0.263398,0.327694,0
1530.91,0.291174,0.317227,20.1875,0,-0.0508793,2.98471,-19.8964,0.317227,3702.55,0.257483,0.352314,0
1539.47,0.29171,0.332141,20.1875,0,0.062698,1.74313,-19.8958,0.332141,3704.22,0.287626,0.292914,0
1551.23,0.292974,0.343694,20.1875,0,0.107473,0.982455,-19.8946,0.343694,3706.06,0.195044,0.353431,0
1559.25,0.294831,0.356477,20.1875,0,0.231554,1.59393,-19.8927,0.356477,3707.34,0.302415,0.394794,0
1571.46,0.297783,0.378716,20.1875,0,0.241834,1.82162,-19.8898,0.378716,3707.96,0.296958,0.362722,0
1579.46,0.301549,0.398332,20.1875,0,0.470728,2.45206,-19.886,0.398332,3708.2,0.315095,0.422158,0
1591.04,0.306219,0.412131,20.1875,0,0.403207,1.19149,-19.8813,0.412131,3708.43,0.227263,0.384983,0
1599.46,0.311141,0.420923,20.1875,0,0.584503,1.04393,-19.8764,0.420923,3708.97,0.260365,0.438507,0
1611.45,0.315101,0.420718,20.1875,0,0.330101,-0.0170774,-19.8724,0.420718,3710.17,0.346246,0.471645,0
1619.47,0.318104,0.41107,20.1875,0,0.374769,-1.20395,-19.8694,0.41107,3712.08,0.349524,0.402538,0
1631.46,0.321295,0.406293,20.1875,0,0.266106,-0.398278,-19.8662,0.406293,3714.23,0.415068,0.380758,0
1639.46,0.323049,0.386428,20.1875,0,0.219278,-2.48347,-19.8645,0.386428,3716.43,0.312906,0.342096,0
1651.47,0.325159,0.383529,20.1875,0,0.175659,-0.241367,-19.8624,0.383529,3718.77,0.356152,0.346185,0
1659.47,0.32593,0.380093,20.1875,0,0.096373,-0.429651,-19.8616,0.380093,3720.99,0.328313,0.37699,0
1671.45,0.324712,0.372272,20.1875,0,-0.101664,-0.652801,-19.8628,0.372272,3722.55,0.358659,0.388658,0
1679.44,0.323127,0.380339,20.1875,0,-0.198377,1.0098,-19.8644,0.380339,3723.42,0.31512,0.392801,0
1691.45,0.321132,0.387699,20.1875,0,-0.166045,0.612629,-19.8664,0.387699,3724.14,0.317475,0.352185,0
1699.53,0.320503,0.412173,20.1875,0,-0.0779202,3.03019,-19.867,0.412173,3725.22,0.329676,0.47849,0
1710.6,0.320136,0.455289,20.1875,0,-0.0331424,3.89203,-19.8674,0.455289,3726.62,0.290465,0.433741,0
1719.53,0.315836,0.489379,20.1875,0,-0.481822,3.82005,-19.8717,0.489379,3728.08,0.357445,0.544524,0
1731.51,0.30699,0.508602,20.1875,0,-0.738455,1.60466,-19.8805,0.508602,3729.99,0.28274,0.52414,0
1743.85,0.297296,0.510174,20.1875,0,-0.785477,0.127369,-19.8902,0.510174,3733.23,0.27886,0.554217,0
1751.54,0.290979,0.510947,20.1875,0,-0.820693,0.100466,-19.8966,0.510947,3737.96,0.337889,0.476097,0
1762.81,0.288328,0.52182,20.1875,0,-0.235311,0.964847,-19.8992,0.52182,3743.29,0.261679,0.513569,0
1771.53,0.286607,0.510819,20.1875,0,-0.197547,-1.26267,-19.9009,0.510819,3748.42,0.207843,0.496728,0
1782.93,0.287727,0.5004,20.1875,0,0.0982337,-0.91345,-19.8998,0.5004,3753.77,0.356418,0.524621,0
1791.48,0.28813,0.43302,20.1875,0,0.0471369,-7.88338,-19.8994,0.43302,3760.16,0.299111,0.323282,0
1803.47,0.291798,0.389525,20.1875,0,0.305988,-3.62887,-19.8957,0.389525,3767.12,0.257009,0.302698,0
1811.48,0.297173,0.386365,20.1875,0,0.670876,-0.394349,-19.8904,0.386365,3773.29,0.374109,0.39448,0
1822.64,0.298671,0.360466,20.1875,0,0.134139,-2.31987,-19.8889,0.360466,3777.99,0.446163,0.425274,0
1831.49,0.301019,0.37223,20.1875,0,0.265482,1.33037,-19.8865,0.37223,3781.41,0.303718,0.444346,0
1843.23,0.303201,0.386577,20.1875,0,0.185786,1.22112,-19.8843,0.386577,3784.01,0.268483,0.35832,0
1851.54,0.305031,0.38988,20.1875,0,0.220299,0.3977,-19.8825,0.38988,3786.47,0.31367,0.383466,0
1863.48,0.306848,0.387032,20.1875,0,0.152148,-0.238556,-19.8807,0.387032,3789.74,0.255253,0.411714,0
1871.48,0.309567,0.386792,20.1875,0,0.339767,-0.0299487,-19.878,0.386792,3794.16,0.343161,0.394874,0
1883.47,0.314546,0.386714,20.1875,0,0.415381,-0.00650952,-19.873,0.386714,3798.54,0.42386,0.361605,0
1891.82,0.322827,0.389033,20.1875,0,0.991525,0.277697,-19.8647,0.389033,3801.73,0.331838,0.409432,0
1902.78,0.332799,0.382807,20.1875,0,0.910211,-0.568282,-19.8547,0.382807,3804.45,0.285474,0.379052,0
1911.48,0.344244,0.369311,20.1875,0,1.31451,-1.55021,-19.8433,0.369311,3808.57,0.290309,0.422887,0
1923.47,0.354553,0.320298,20.1875,0,0.859849,-4.08781,-19.833,0.320298,3815.72,0.373915,0.161514,0
1931.46,0.3604,0.21572,20.1875,0,0.732217,-13.0969,-19.8271,0.21572,3825.72,0.442726,0.112224,0
1942.77,0.366266,0.148703,20.1875,0,0.518792,-5.927,-19.8213,0.148703,3836.46,0.399407,0.15429,0
1951.73,0.370632,0.119657,20.1875,0,0.486926,-3.23925,-19.8169,0.119657,3847.23,0.383958,0.0846426,0
1963.06,0.372484,0.102276,20.1875,0,0.163429,-1.53394,-19.8151,0.102276,3859.56,0.37376,0.0909455,0
1971.47,0.373883,0.0934587,20.1875,0,0.166538,-1.04937,-19.8137,0.0934587,3873.94,0.328244,0.112234,0
1983.47,0.374123,0.0656448,20.1875,0,0.0199598,-2.31725,-19.8134,0.0656448,3888.82,0.374017,0.0309219,0
1995.47,0.375244,0.0428943,20.1875,0,0.0933646,-1.89524,-19.8123,0.0428943,3902.8,0.358823,0.0291944,0
2003.48,0.378214,0.0363594,20.1875,0,0.370918,-0.815952,-19.8093,0.0363594,3916.18,0.395914,0.0667951,0
2014.77,0.381633,0.0359867,20.1875,0,0.302936,-0.0330215,-19.8059,0.0359867,3929.56,0.392842,0.0539777,0
2023.74,0.384054,0.0360898,20.1875,0,0.269931,0.0114972,-19.8035,0.0360898,3941.87,0.380279,0.0156572,0
2035.06,0.38521,0.0358045,20.1875,0,0.10204,-0.025184,-19.8023,0.0358045,3951.96,0.389432,0.108535,0
2043.47,0.385228,0.0299391,20.1875,0,0.00218623,-0.698094,-19.8023,0.0299391,3961.09,0.420139,0.0101904,0
2055.48,0.38497,0.0242081,20.1875,0,-0.0214203,-0.476828,-19.8026,0.0242081,3970.63,0.397615,0.0458377,0
2063.48,0.385747,0.0296711,20.1875,0,0.0971243,0.683217,-19.8018,0.0296711,3978.81,0.446122,-0.00676964,0
