Resolution,1920,1080,Distance,58,Width,47.5,Subject,V006GCAURA,Test,TOPTVU-06212018-153144,Calibration,CC9-06212018-153058,Oscann, 4.0.8,libTracker, 1.0.7,crtime, 11072018-163931
Time(ms),GazeX(deg),GazeY(deg),StimulusX(deg),StimulusY(deg),GazeVelX(deg/s),GazeVelY(deg/s),ErrorX(deg),ErrorY(deg),PupilArea(px^2),GazeRawX(deg),GazeRawY(deg),Blinks
0,-1.25096,-3.45301,0,0,0,0,-1.25096,-3.45301,3827.82,-1.3136,-2.99525,0
12.077,-1.25096,-3.45301,0,0,0,0,-1.25096,-3.45301,3827.82,-2.21611,-4.04123,0
20.033,-1.25061,-3.4722,0,0,0.0430655,-2.41214,-1.25061,-3.4722,3827.82,-2.82684,-4.43649,0
31.946,-1.25134,-3.4316,0,0,-0.0607321,3.40841,-1.25134,-3.4316,3827.82,-1.5826,-3.82352,0
39.969,-1.18712,-2.44917,0,0,8.00456,122.451,-1.18712,-2.44917,3978.22,-1.11236,0.116605,0
51.936,-1.10963,-1.01554,0,0,6.47537,119.799,-1.10963,-1.01554,4158.02,-1.04182,-0.998746,0
59.925,-1.0332,-0.741843,0,0,9.56679,34.2592,-1.0332,-0.741843,4318.06,-0.748054,-0.937554,0
71.915,-0.982535,-0.237126,0,0,4.22534,42.0948,-0.982535,-0.237126,4465.16,-0.831974,-0.229866,0
79.968,-0.950972,0.215055,0,0,3.91943,56.1505,-0.950972,0.215055,4640.39,-0.711434,2.07127,0
91.969,-0.938434,1.53241,0,0,1.04473,109.771,-0.938434,1.53241,4834.82,-0.96243,2.26003,0
99.979,-0.929969,2.12242,0,0,1.05687,73.6595,-0.929969,2.12242,4990.22,-0.943086,2.2024,0
111.919,-0.923777,2.1986,0,0,0.518586,6.38005,-0.923777,2.1986,5077.89,-0.839716,2.19592,0
119.937,-0.918519,2.20007,0,0,0.655704,0.18307,-0.918519,2.20007,5121.6,-0.922001,2.08663,0
131.925,-0.916285,2.18236,0,0,0.186387,-1.47748,-0.916285,2.18236,5152.72,-1.00341,2.28561,0
140.029,-0.9195,2.16322,0,0,-0.396791,-2.36118,-0.9195,2.16322,5184.04,-0.935116,2.15441,0
151.949,-0.925204,2.16259,0,0,-0.478507,-0.0528235,-0.925204,2.16259,5214.62,-0.858222,2.16379,0
159.905,-0.929734,2.16373,0,0,-0.569299,0.143019,-0.929734,2.16373,5240.93,-0.924009,2.15328,0
171.931,-0.93246,2.1614,0,0,-0.226715,-0.194218,-0.93246,2.1614,5264.63,-0.858223,2.16966,0
179.973,-0.933753,2.16393,0,0,-0.160796,0.315602,-0.933753,2.16393,5289.2,-0.999176,2.19667,0
192.14,-0.934013,2.1671,0,0,-0.0213668,0.260511,-0.934013,2.1671,5314.14,-0.978115,2.12402,0
200.027,-0.933765,2.20794,0,0,0.0315042,5.17769,-0.933765,2.20794,5337.2,-0.932828,2.24674,0
211.956,-0.933503,2.25713,0,0,0.0218888,4.12318,-0.933503,2.25713,5357.8,-0.938506,2.29114,0
223.959,-0.933386,2.29171,0,0,0.00977814,2.88099,-0.933386,2.29171,5377.06,-0.990279,2.33571,0
231.925,-0.93335,2.34493,0,0,0.00450232,6.68094,-0.93335,2.34493,5396.62,-0.949835,2.38195,0
243.979,-0.933564,2.36824,0,0,-0.017748,1.93436,-0.933564,2.36824,5416.52,-0.90939,2.42847,0
251.928,-0.934432,2.37984,0,0,-0.109219,1.45917,-0.934432,2.37984,5434.41,-0.851366,2.37792,0
263.926,-0.936058,2.38389,0,0,-0.135497,0.337244,-0.936058,2.38389,5447.65,-0.868169,2.35604,0
272.06,-0.937984,2.45003,0,0,-0.236752,8.13195,-0.937984,2.45003,5455.5,-0.922389,2.51661,0
283.954,-0.94093,2.54218,0,0,-0.247666,7.7471,-0.94093,2.54218,5458.91,-0.960143,2.57281,0
292.198,-0.948245,2.5777,0,0,-0.887352,4.30923,-0.948245,2.5777,5459.57,-0.94447,2.59439,0
303.945,-0.962144,2.60378,0,0,-1.18321,2.21996,-0.962144,2.60378,5457.38,-0.974564,2.62377,0
312.038,-0.980435,2.63235,0,0,-2.26009,3.53038,-0.980435,2.63235,5448.23,-1.02372,2.64217,0
323.982,-1.00178,2.66079,0,0,-1.78672,2.38063,-1.00178,2.66079,5426.74,-1.027,2.70367,0
331.981,-1.03094,2.7753,0,0,-3.64554,14.3163,-1.03094,2.7753,5393.38,-1.00669,2.87623,0
343.963,-1.06994,2.89921,0,0,-3.25536,10.3413,-1.06994,2.89921,5352.25,-1.2026,2.97637,0
351.96,-1.10691,2.96911,0,0,-4.62237,8.74079,-1.10691,2.96911,5302.84,-1.16996,3.0512,0
364.07,-1.12994,3.03559,0,0,-1.90236,5.48971,-1.12994,3.03559,5244.8,-1.15173,3.06915,0
371.965,-1.14149,3.09387,0,0,-1.46293,7.38179,-1.14149,3.09387,5181.93,-1.12515,3.18665,0
383.934,-1.14743,3.15152,0,0,-0.495607,4.81623,-1.14743,3.15152,5117.31,-1.22988,3.23756,0
392.248,-1.15001,3.19515,0,0,-0.310697,5.24787,-1.15001,3.19515,5051.06,-1.15219,3.16542,0
403.918,-1.15075,3.26741,0,0,-0.0635461,6.19233,-1.15075,3.26741,4979.44,-1.09735,3.37716,0
412.027,-1.1517,3.34983,0,0,-0.116962,10.1632,-1.1517,3.34983,4900.74,-1.13448,3.32212,0
424.006,-1.15528,3.41835,0,0,-0.298716,5.72055,-1.15528,3.41835,4822.95,-1.16628,3.53455,0
431.937,-1.16376,3.50538,0,0,-1.07013,10.9726,-1.16376,3.50538,4754.36,-1.14593,3.57537,0
443.993,-1.17772,3.58249,0,0,-1.15784,6.39634,-1.17772,3.58249,4690.6,-1.18513,3.60772,0
452,-1.19502,3.68054,0,0,-2.16068,12.2457,-1.19502,3.68054,4624.58,-1.20801,3.75507,0
464.101,-1.21526,3.75856,0,0,-1.67228,6.44722,-1.21526,3.75856,4561.25,-1.20992,3.76586,0
476.139,-1.23967,3.79005,0,0,-2.02803,2.61591,-1.23967,3.79005,4507.8,-1.37401,3.85932,0
484.097,-1.26553,3.84465,0,0,-3.24959,6.86078,-1.26553,3.84465,4460.96,-1.31543,3.89853,0
496.124,-1.28911,3.90357,0,0,-1.96064,4.89927,-1.28911,3.90357,4415.17,-1.36073,3.93273,0
504.096,-1.31078,3.94497,0,0,-2.71793,5.19368,-1.31078,3.94497,4370.38,-1.35093,3.99313,0
516.114,-1.33209,3.94719,0,0,-1.77315,0.184054,-1.33209,3.94719,4328.11,-1.28064,4.04797,0
524.148,-1.35224,3.94161,0,0,-2.50784,-0.694188,-1.35224,3.94161,4291.32,-1.32184,4.05942,0
536.091,-1.37261,3.7663,0,0,-1.70519,-14.6785,-1.37261,3.7663,4263.39,-1.38606,3.63238,0
544.136,-1.3971,2.86605,0,0,-3.04443,-111.902,-1.3971,2.86605,4240.65,-1.57004,2.09954,0
556.253,-1.42069,1.97173,0,0,-1.94683,-73.8069,-1.42069,1.97173,4215.34,-1.39095,1.29431,0
564.093,-1.44588,1.87813,0,0,-3.21357,-11.9392,-1.44588,1.87813,4185.65,-1.41896,1.76741,0
576.085,-1.47457,1.87635,0,0,-2.39189,-0.148758,-1.47457,1.87635,4155.13,-1.44629,1.77778,0
583.947,-1.50174,1.88175,0,0,-3.45693,0.686754,-1.50174,1.88175,4125.8,-1.51731,1.97522,0
595.919,-1.52116,1.99244,0,0,-1.62156,9.24647,-1.52116,1.99244,4097.58,-1.48991,2.05147,0
603.939,-1.53258,2.05976,0,0,-1.42418,8.39315,-1.53258,2.05976,4072.36,-1.54375,2.17107,0
615.929,-1.53933,2.12405,0,0,-0.563412,5.36245,-1.53933,2.12405,4052.65,-1.54577,2.1585,0
624.072,-1.54289,2.14999,0,0,-0.436745,3.18474,-1.54289,2.14999,4035.38,-1.55176,2.14633,0
635.95,-1.54386,2.19402,0,0,-0.0816258,3.70691,-1.54386,2.19402,4015.37,-1.56353,2.23286,0
643.952,-1.54319,2.27559,0,0,0.0839278,10.1936,-1.54319,2.27559,3994.38,-1.62298,2.32377,0
656.023,-1.5411,2.32465,0,0,0.172801,4.06466,-1.5411,2.32465,3977.39,-1.4715,2.33319,0
663.93,-1.53818,2.36646,0,0,0.369099,5.28822,-1.53818,2.36646,3964.81,-1.50925,2.46304,0
676.148,-1.53592,2.46834,0,0,0.185525,8.33838,-1.53592,2.46834,3954.83,-1.4466,2.61138,0
683.941,-1.53511,2.55652,0,0,0.103994,11.3153,-1.53511,2.55652,3946.43,-1.54241,2.66027,0
695.953,-1.53623,2.59561,0,0,-0.0933602,3.25389,-1.53623,2.59561,3938.51,-1.46953,2.54199,0
704.049,-1.54135,2.61617,0,0,-0.632167,2.53907,-1.54135,2.61617,3930.45,-1.50736,2.61405,0
716.188,-1.55248,2.67302,0,0,-0.917271,4.68361,-1.55248,2.67302,3923.01,-1.58813,2.72898,0
728.185,-1.56685,2.76225,0,0,-1.19737,7.43798,-1.56685,2.76225,3916.72,-1.5189,2.86493,0
736.178,-1.57976,2.83916,0,0,-1.61575,9.62242,-1.57976,2.83916,3911.01,-1.6345,2.89383,0
748.198,-1.58979,2.92833,0,0,-0.834482,7.41781,-1.58979,2.92833,3905.4,-1.62246,2.97999,0
756.263,-1.59649,2.9925,0,0,-0.83051,7.95677,-1.59649,2.9925,3900.13,-1.67179,3.03437,0
767.96,-1.59967,3.05486,0,0,-0.271988,5.33152,-1.59967,3.05486,3895.47,-1.61608,3.16689,0
776.043,-1.60071,3.16471,0,0,-0.128222,13.5903,-1.60071,3.16471,3891.59,-1.53809,3.2285,0
787.905,-1.60033,3.27223,0,0,0.0318969,9.06396,-1.60033,3.27223,3888.76,-1.46308,3.31437,0
795.946,-1.59726,3.33934,0,0,0.381398,8.34568,-1.59726,3.33934,3887.02,-1.59565,3.36342,0
808.031,-1.58854,3.37448,0,0,0.72158,2.90821,-1.58854,3.37448,3885.93,-1.59889,3.38885,0
815.955,-1.56756,3.37539,0,0,2.64839,0.114591,-1.56756,3.37539,3884.79,-1.63904,3.48275,0
827.94,-1.5216,3.37239,0,0,3.83469,-0.250599,-1.5216,3.37239,3883.18,-1.6182,3.54916,0
835.936,-1.43673,3.31862,0,0,10.6137,-6.72468,-1.43673,3.31862,3881.15,-1.39986,3.26676,0
847.902,-1.31697,3.08063,0,0,10.0082,-19.8886,-1.31697,3.08063,3878.73,-0.901586,2.54804,0
856.001,-1.19407,2.66394,0,0,15.1745,-51.4492,-1.19407,2.66394,3875.61,-0.823166,1.83594,0
867.915,-1.10254,2.34807,0,0,7.68251,-26.513,-1.10254,2.34807,3871.78,-1.00826,2.2611,0
876.065,-1.05085,2.29341,0,0,6.34315,-6.70647,-1.05085,2.29341,3867.61,-1.07315,2.26496,0
887.916,-1.02515,2.29103,0,0,2.16839,-0.200965,-1.02515,2.29103,3863.78,-1.0282,2.23107,0
895.935,-1.01183,2.2931,0,0,1.66133,0.258649,-1.01183,2.2931,3861.29,-1.00305,2.37205,0
908.225,-1.00414,2.34983,0,0,0.625544,4.61615,-1.00414,2.34983,3860.29,-0.996501,2.38128,0
915.914,-0.998089,2.41822,0,0,0.787001,8.89436,-0.998089,2.41822,3860.06,-0.96307,2.51317,0
927.954,-0.991865,2.57194,0,0,0.51699,12.7677,-0.991865,2.57194,3860.1,-0.994046,2.69588,0
935.966,-0.986071,2.72972,0,0,0.723146,19.6928,-0.986071,2.72972,3860.35,-1.00752,2.77368,0
947.929,-0.981823,2.77938,0,0,0.355112,4.15084,-0.981823,2.77938,3860.9,-0.945349,2.86604,0
956.039,-0.979327,2.80349,0,0,0.307737,2.97272,-0.979327,2.80349,3861.85,-0.979034,2.80195,0
967.906,-0.978428,2.83498,0,0,0.0757574,2.65358,-0.978428,2.83498,3863.44,-0.917861,2.83414,0
979.934,-0.978242,2.86762,0,0,0.0154251,2.71418,-0.978242,2.86762,3866.24,-0.986077,2.93446,0
987.91,-0.977813,2.90716,0,0,0.0538601,4.95623,-0.977813,2.90716,3870.67,-0.942625,2.93052,0
999.911,-0.977189,2.94305,0,0,0.0519498,2.99122,-0.977189,2.94305,3875.9,-0.972677,2.95167,0
1008.24,-0.976612,3.01428,0,0,0.0692971,8.54968,-0.976612,3.01428,3880.4,-1.11679,3.07736,0
1019.95,-0.976793,3.1166,0,0,-0.0154881,8.73663,-0.976793,3.1166,3883.61,-1.11112,3.28164,0
1027.95,-0.978943,3.18741,0,0,-0.268967,8.85839,-0.978943,3.18741,3886.03,-0.949173,3.19388,0
1040.02,-0.982922,3.21669,0,0,-0.329437,2.42415,-0.982922,3.21669,3887.95,-1.00163,3.12978,0
1047.94,-0.987337,3.2507,0,0,-0.557658,4.29566,-0.987337,3.2507,3889.31,-0.973982,3.23819,0
1060.03,-0.990612,3.35515,0,0,-0.270869,8.64022,-0.990612,3.35515,3890.37,-0.970342,3.48946,0
1067.92,-0.991865,3.49724,0,0,-0.158838,18.0084,-0.991865,3.49724,3891.63,-0.914647,3.51348,0
1079.96,-0.991712,3.51793,0,0,0.0126793,1.71907,-0.991712,3.51793,3893.2,-0.998093,3.66143,0
1087.97,-0.9894,3.52513,0,0,0.288686,0.899548,-0.9894,3.52513,3895.05,-1.07533,3.52947,0
1099.94,-0.983403,3.55878,0,0,0.500734,2.80942,-0.983403,3.55878,3897.47,-1.05946,3.52706,0
1108.09,-0.969879,3.55994,0,0,1.66005,0.142145,-0.969879,3.55994,3901.06,-1.06613,3.70489,0
1119.95,-0.938897,3.5526,0,0,2.61317,-0.618875,-0.938897,3.5526,3905.84,-0.951057,3.71178,0
1128,-0.8846,3.37097,0,0,6.74406,-22.5604,-0.8846,3.37097,3910.32,-0.85361,2.68912,0
1139.98,-0.821157,2.65685,0,0,5.29486,-59.599,-0.821157,2.65685,3912.85,-0.435376,1.45765,0
1147.94,-0.770616,1.99553,0,0,6.34779,-83.0599,-0.770616,1.99553,3913.54,-0.706091,1.53218,0
1160.13,-0.743932,1.85144,0,0,2.18867,-11.818,-0.743932,1.85144,3913.07,-0.730135,1.79946,0
1168.03,-0.733716,1.84611,0,0,1.29398,-0.674955,-0.733716,1.84611,3911.26,-0.735333,1.83396,0
1180,-0.730514,1.8474,0,0,0.267417,0.107664,-0.730514,1.8474,3908.4,-0.687791,1.88166,0
1187.88,-0.730301,1.88073,0,0,0.0270134,4.22846,-0.730301,1.88073,3906,-0.759708,1.92058,0
1199.97,-0.732018,1.93905,0,0,-0.142054,4.82548,-0.732018,1.93905,3904.88,-0.70939,2.02779,0
1208.11,-0.735752,2.02816,0,0,-0.458979,10.9526,-0.735752,2.02816,3904.61,-0.67535,2.19221,0
1219.94,-0.742255,2.1085,0,0,-0.549287,6.78585,-0.742255,2.1085,3904.78,-0.727735,2.13707,0
1231.97,-0.752344,2.15009,0,0,-0.838769,3.45835,-0.752344,2.15009,3905.72,-0.692423,2.16121,0
1240.16,-0.768003,2.19166,0,0,-1.91348,5.07921,-0.768003,2.19166,3908.12,-0.851965,2.2739,0
1252,-0.791741,2.26942,0,0,-2.0047,6.56703,-0.791741,2.26942,3911.83,-0.854519,2.31734,0
1260.04,-0.820097,2.40451,0,0,-3.52768,16.8067,-0.820097,2.40451,3915.47,-0.759091,2.49151,0
1271.97,-0.844144,2.53307,0,0,-2.01538,10.7739,-0.844144,2.53307,3918.16,-0.877653,2.58056,0
1280.06,-0.860133,2.57978,0,0,-1.97592,5.77286,-0.860133,2.57978,3920.42,-0.897277,2.5816,0
1292.25,-0.87073,2.61519,0,0,-0.869474,2.90533,-0.87073,2.61519,3922.73,-0.844492,2.70091,0
1299.94,-0.877651,2.74664,0,0,-0.900218,17.0955,-0.877651,2.74664,3924.76,-0.905887,2.85081,0
1311.94,-0.881006,2.89708,0,0,-0.27952,12.5355,-0.881006,2.89708,3926.31,-0.855069,2.9507,0
1319.98,-0.882035,2.9622,0,0,-0.127985,8.09984,-0.882035,2.9622,3928.13,-0.919486,2.97787,0
1332,-0.88138,2.97914,0,0,0.054443,1.40874,-0.88138,2.97914,3931.62,-0.908955,2.98522,0
1340.08,-0.879367,3.0006,0,0,0.249165,2.65678,-0.879367,3.0006,3938.36,-0.943118,3.05402,0
1352.05,-0.877546,3.04432,0,0,0.152219,3.65338,-0.877546,3.04432,3948.11,-0.851056,3.06911,0
1360.04,-0.876734,3.09746,0,0,0.10153,6.64417,-0.876734,3.09746,3957.94,-0.760182,3.163,0
1371.9,-0.876152,3.23634,0,0,0.0490732,11.7143,-0.876152,3.23634,3965.7,-0.882804,3.40242,0
1379.97,-0.875756,3.37443,0,0,0.0490448,17.1041,-0.875756,3.37443,3971.54,-0.775055,3.30529,0
1392.45,-0.876575,3.41742,0,0,-0.0656653,3.44518,-0.876575,3.41742,3975.86,-0.797732,3.46102,0
1400.04,-0.880175,3.45603,0,0,-0.474429,5.08865,-0.880175,3.45603,3979.04,-0.886972,3.54921,0
1412.02,-0.889021,3.48934,0,0,-0.738357,2.78042,-0.889021,3.48934,3982.31,-0.827655,3.49576,0
1420.03,-0.904694,3.53796,0,0,-1.9579,6.0738,-0.904694,3.53796,3987.09,-0.92936,3.57899,0
1431.92,-0.926856,3.58729,0,0,-1.8639,4.14855,-0.926856,3.58729,3993.18,-0.940902,3.59526,0
1439.97,-0.951555,3.64724,0,0,-3.06701,7.44492,-0.951555,3.64724,3998.72,-0.967313,3.79293,0
1451.96,-0.97243,3.76222,0,0,-1.74068,9.58712,-0.97243,3.76222,4002.27,-1.01003,3.89382,0
1459.95,-0.985514,3.85535,0,0,-1.63787,11.6586,-0.985514,3.85535,4004.2,-0.979025,3.87074,0
1471.97,-0.99134,3.90652,0,0,-0.484847,4.25849,-0.99134,3.90652,4005.58,-1.02563,3.93394,0
1484.05,-0.993393,3.93396,0,0,-0.16986,2.27002,-0.993393,3.93396,4006.73,-1.0061,3.93319,0
1492.19,-0.994058,3.98185,0,0,-0.0817494,5.88737,-0.994058,3.98185,4007.57,-1.03529,4.05484,0
1503.96,-0.99434,4.04027,0,0,-0.023889,4.96089,-0.99434,4.04027,4008.44,-0.890535,4.0271,0
1511.97,-0.995237,4.06746,0,0,-0.112155,3.39842,-0.995237,4.06746,4009.67,-0.856922,4.1017,0
1524.01,-0.9973,4.11223,0,0,-0.171306,3.71703,-0.9973,4.11223,4011.29,-1.01257,4.18299,0
1531.96,-1.00149,4.17255,0,0,-0.527672,7.58861,-1.00149,4.17255,4013.37,-0.972452,4.21391,0
1543.95,-1.00993,4.26377,0,0,-0.703084,7.60568,-1.00993,4.26377,4016.4,-0.979645,4.48464,0
1551.95,-1.02479,4.38758,0,0,-1.85841,15.4807,-1.02479,4.38758,4020.3,-1.06185,4.48976,0
1563.88,-1.04486,4.45578,0,0,-1.6818,5.71476,-1.04486,4.45578,4023.66,-1.05643,4.32678,0
1571.89,-1.06817,4.46452,0,0,-2.91314,1.09225,-1.06817,4.46452,4025.28,-1.03,4.44622,0
1583.95,-1.09655,4.46544,0,0,-2.35217,0.0758852,-1.09655,4.46544,4025.47,-1.18696,4.46558,0
1592.15,-1.12865,4.46764,0,0,-3.91499,0.268407,-1.12865,4.46764,4025.19,-1.09197,4.4714,0
1603.96,-1.15793,4.50447,0,0,-2.47815,3.11821,-1.15793,4.50447,4025.22,-1.13829,4.59822,0
1611.94,-1.18227,4.59065,0,0,-3.04931,10.798,-1.18227,4.59065,4025.74,-1.17076,4.68709,0
1624.01,-1.20308,4.69508,0,0,-1.72535,8.65569,-1.20308,4.69508,4026.5,-1.32321,4.8469,0
1631.93,-1.21812,4.77881,0,0,-1.89774,10.5686,-1.21812,4.77881,4027.45,-1.27846,4.81032,0
1643.92,-1.22492,4.86256,0,0,-0.567731,6.98601,-1.22492,4.86256,4029.02,-1.32787,4.93667,0
1651.96,-1.22342,4.92006,0,0,0.186488,7.15632,-1.22342,4.92006,4032.07,-1.33809,4.90493,0
1663.97,-1.2033,4.92195,0,0,1.67539,0.157345,-1.2033,4.92195,4036.61,-1.33585,4.95415,0
1671.93,-1.1368,4.91382,0,0,8.34638,-1.02093,-1.1368,4.91382,4041.35,-1.17003,4.95126,0
1683.97,-1.01941,4.74883,0,0,9.75191,-13.7064,-1.01941,4.74883,4045.37,-0.571213,4.23861,0
1692.14,-0.902536,4.42507,0,0,14.3022,-39.6182,-0.902536,4.42507,4049.28,-0.651462,4.03294,0
1703.97,-0.835837,4.24063,0,0,5.64194,-15.602,-0.835837,4.24063,4054.29,-0.825165,4.31356,0
1711.94,-0.814376,4.23269,0,0,2.69068,-0.995822,-0.814376,4.23269,4060.47,-0.805624,4.23639,0
1724.01,-0.811375,4.23353,0,0,0.248718,0.0702997,-0.811375,4.23353,4066.82,-0.774371,4.21251,0
1735.95,-0.814266,4.25628,0,0,-0.242054,1.90492,-0.814266,4.25628,4073.26,-0.866813,4.30555,0
1743.95,-0.822917,4.30114,0,0,-1.08154,5.60826,-0.822917,4.30114,4080.13,-0.802986,4.32868,0
1756.04,-0.837775,4.3745,0,0,-1.22965,6.07091,-0.837775,4.3745,4086.41,-0.954988,4.42363,0
1763.96,-0.855804,4.43443,0,0,-2.27641,7.56694,-0.855804,4.43443,4090.82,-0.856224,4.46904,0
1775.88,-0.872581,4.5226,0,0,-1.40722,7.3959,-0.872581,4.5226,4093.36,-0.796189,4.71954,0
1784.12,-0.885416,4.65699,0,0,-1.55804,16.3127,-0.885416,4.65699,4094.77,-0.818815,4.78094,0
1796.04,-0.894653,4.73657,0,0,-0.774446,6.67221,-0.894653,4.73657,4095.97,-0.996423,4.72709,0
1803.93,-0.901399,4.77133,0,0,-0.855095,4.40534,-0.901399,4.77133,4097.98,-0.948943,4.79061,0
1816.34,-0.905628,4.83367,0,0,-0.3407,5.02327,-0.905628,4.83367,4101.27,-0.911393,4.90766,0
1824.04,-0.908135,4.89339,0,0,-0.325848,7.75955,-0.908135,4.89339,4105.27,-0.887933,4.88088,0
1836,-0.910155,4.92883,0,0,-0.168912,2.9644,-0.910155,4.92883,4109.45,-0.850291,5.06236,0
1843.96,-0.912772,4.97291,0,0,-0.328587,5.53542,-0.912772,4.97291,4113.46,-0.907598,4.94907,0
1856.15,-0.917385,5.00125,0,0,-0.378505,2.32527,-0.917385,5.00125,4116.4,-0.922705,4.9909,0
1863.96,-0.92577,5.01602,0,0,-1.07265,1.88896,-0.92577,5.01602,4117.76,-0.930902,5.09907,0
1875.97,-0.941413,5.02085,0,0,-1.30353,0.402976,-0.941413,5.02085,4118.13,-0.901392,5.00509,0
1883.98,-0.961872,5.11933,0,0,-2.55251,12.2863,-0.961872,5.11933,4118.19,-1.05784,5.29936,0
1896.6,-0.980958,5.35205,0,0,-1.51248,18.4425,-0.980958,5.35205,4118.24,-1.13214,5.51422,0
1903.99,-0.996699,5.52265,0,0,-2.13097,23.0946,-0.996699,5.52265,4118.5,-1.03873,5.57365,0
1916.24,-1.00542,5.60174,0,0,-0.711394,6.45195,-1.00542,5.60174,4119.37,-1.0012,5.66765,0
1924.11,-1.00401,5.60487,0,0,0.179052,0.397721,-1.00401,5.60487,4121.45,-1.01494,5.84181,0
1936,-0.985943,5.60124,0,0,1.51931,-0.304979,-0.985943,5.60124,4125.93,-0.926732,5.85002,0
1943.87,-0.944892,5.49346,0,0,5.21621,-13.695,-0.944892,5.49346,4133.8,-1.06106,5.38477,0
1956.1,-0.894755,4.68434,0,0,4.10052,-66.175,-0.894755,4.68434,4142.76,-0.45289,3.96385,0
1963.91,-0.850542,3.98827,0,0,5.66399,-89.1712,-0.850542,3.98827,4149.12,-0.804193,3.47631,0
1975.99,-0.825671,3.9538,0,0,2.05812,-2.85265,-0.825671,3.9538,4152.34,-0.697451,3.91562,0
1987.9,-0.817919,3.95339,0,0,0.65066,-0.0345911,-0.817919,3.95339,4153.7,-0.848027,3.98725,0
1996.02,-0.816438,3.95322,0,0,0.182345,-0.0212682,-0.816438,3.95322,4154.08,-0.770296,3.96051,0
2008.2,-0.817913,3.96072,0,0,-0.121052,0.615921,-0.817913,3.96072,4154.08,-0.730629,3.96135,0
2015.89,-0.822798,3.96166,0,0,-0.635006,0.122862,-0.822798,3.96166,4154.13,-0.867044,3.88671,0
2027.94,-0.831539,3.96446,0,0,-0.72585,0.232427,-0.831539,3.96446,4154.66,-0.870847,3.9608,0
2036.02,-0.84345,4.00567,0,0,-1.4738,5.0991,-0.84345,4.00567,4156.41,-0.818115,4.0608,0
2047.92,-0.855387,4.05378,0,0,-1.0031,4.04258,-0.855387,4.05378,4159.61,-0.858219,4.03273,0
2056,-0.863544,4.09054,0,0,-1.00908,4.54769,-0.863544,4.09054,4163.1,-0.913089,4.16646,0
2067.99,-0.867031,4.19103,0,0,-0.290995,8.38628,-0.867031,4.19103,4165.5,-0.991262,4.27053,0
2076.02,-0.868595,4.29972,0,0,-0.194588,13.5207,-0.868595,4.29972,4166.7,-0.977997,4.33969,0
2088.05,-0.871032,4.34708,0,0,-0.202597,3.93739,-0.871032,4.34708,4167.26,-0.791595,4.37732,0
2096.04,-0.87473,4.37804,0,0,-0.463104,3.87657,-0.87473,4.37804,4167.52,-0.783298,4.42746,0
2108.2,-0.878331,4.40845,0,0,-0.296171,2.50107,-0.878331,4.40845,4167.64,-0.861166,4.41595,0
2115.92,-0.880746,4.42354,0,0,-0.312462,1.95307,-0.880746,4.42354,4167.77,-0.9021,4.425,0
2127.93,-0.882995,4.43543,0,0,-0.187356,0.990442,-0.882995,4.43543,4168.01,-0.839507,4.43714,0
2135.92,-0.887759,4.5111,0,0,-0.595938,9.46688,-0.887759,4.5111,4168.34,-0.877909,4.58254,0
2147.92,-0.897925,4.60113,0,0,-0.847465,7.50512,-0.897925,4.60113,4168.89,-0.952164,4.62356,0
2156,-0.913678,4.65869,0,0,-1.94945,7.12276,-0.913678,4.65869,4170.03,-0.984507,4.76288,0
