Resolution,1920,1080,Distance,1,Width,1,Subject,V004GAAURA,Test,TSMV-12292016-134232,Calibration,CC9-12292016-134039,Oscann, 4.0.8,libTracker, 1.0.7,crtime, 11072018-163729
Time(ms),GazeX(deg),GazeY(deg),StimulusX(deg),StimulusY(deg),GazeVelX(deg/s),GazeVelY(deg/s),ErrorX(deg),ErrorY(deg),PupilArea(px^2),GazeRawX(deg),GazeRawY(deg),Blinks
10,0.153051,-0.296577,0,0,0,0,0.153051,-0.296577,3171.77,0.151614,-0.287096,0
20,0.153051,-0.296577,0,0,0,0,0.153051,-0.296577,3171.77,0.146618,-0.323148,0
30,0.152086,-0.314755,0,0,-0.0964367,-1.81781,0.152086,-0.314755,3171.77,0.212535,-0.272415,0
40,0.150588,-0.342966,0,0,-0.149784,-2.82104,0.150588,-0.342966,3171.77,-0.046755,-0.400213,0
50,0.154576,-0.345329,0,0,0.398745,-0.236371,0.154576,-0.345329,3174.72,0.222938,-0.439109,0
60,0.156748,-0.368631,0,0,0.217159,-2.33013,0.156748,-0.368631,3173.12,0.115846,-0.372658,0
70,0.159873,-0.369772,0,0,0.312518,-0.114127,0.159873,-0.369772,3171.17,0.184938,-0.305724,0
80,0.162403,-0.369748,0,0,0.25304,0.002351,0.162403,-0.369748,3169.2,0.223341,-0.388194,0
90,0.164375,-0.358577,0,0,0.19723,1.11709,0.164375,-0.358577,3167.28,0.163161,-0.381804,0
100,0.164889,-0.347603,0,0,0.0513408,1.0974,0.164889,-0.347603,3165.59,0.0512585,-0.223622,0
110,0.16099,-0.347011,0,0,-0.389837,0.0592636,0.16099,-0.347011,3164.41,0.15134,-0.350369,0
120,0.148199,-0.34657,0,0,-1.27917,0.0440436,0.148199,-0.34657,3163.89,0.170656,-0.335097,0
130,0.125442,-0.345132,0,0,-2.27565,0.143867,0.125442,-0.345132,3163.91,0.077256,-0.242409,0
140,0.101882,-0.334449,0,0,-2.35603,1.06829,0.101882,-0.334449,3164.01,0.126316,-0.364254,0
150,0.0880036,-0.316844,0,0,-1.38783,1.76043,0.0880036,-0.316844,3163.88,0.205116,-0.332269,0
160,0.0835285,-0.315147,0,0,-0.447507,0.169734,0.0835285,-0.315147,3163.72,0.0708729,-0.275633,0
170,0.0852135,-0.296322,0,0,0.168498,1.88251,0.0852135,-0.296322,3163.9,0.0429946,-0.277881,0
180,0.0899737,-0.284414,0,0,0.476019,1.19079,0.0899737,-0.284414,3164.74,0.076015,-0.287746,0
190,0.101109,-0.236398,0,0,1.11355,4.80165,0.101109,-0.236398,3166.5,0.0543416,-0.187097,0
200,0.115286,-0.187919,0,0,1.41769,4.8479,0.115286,-0.187919,3169.08,0.104069,-0.0848268,0
210,0.128181,-0.186288,0,0,1.28946,0.163081,0.128181,-0.186288,3172.15,0.323989,-0.133584,0
220,0.141205,-0.187186,0,0,1.30239,-0.0898051,0.141205,-0.187186,3175.62,0.237249,-0.242587,0
230,0.151272,-0.198202,0,0,1.00671,-1.10161,0.151272,-0.198202,3179.35,0.222894,-0.287887,0
240,0.159499,-0.202508,0,0,0.822749,-0.430594,0.159499,-0.202508,3182.8,0.110558,-0.305224,0
250,0.168055,-0.204848,0,0,0.85555,-0.234041,0.168055,-0.204848,3185.37,0.154759,-0.0375273,0
260,0.173668,-0.246322,0,0,0.561357,-4.14742,0.173668,-0.246322,3187.19,0.162791,-0.141353,0
270,0.180931,-0.205279,0,0,0.726236,4.10438,0.180931,-0.205279,3189.16,0.139368,-0.241704,0
280,0.185237,-0.20447,0,0,0.430625,0.080871,0.185237,-0.20447,3191.9,0.188776,-0.291524,0
290,0.190058,-0.227965,0,0,0.482114,-2.34953,0.190058,-0.227965,3195.09,0.2232,-0.165671,0
300,0.194936,-0.27079,0,0,0.487788,-4.28246,0.194936,-0.27079,3198.4,0.250476,-0.233075,0
310,0.200366,-0.272804,0,0,0.543,-0.201432,0.200366,-0.272804,3202.02,0.228108,-0.349355,0
320,0.203042,-0.272894,0,0,0.267602,-0.00895673,0.203042,-0.272894,3206.05,0.172944,-0.335571,0
330,0.203562,-0.27312,0,0,0.0520037,-0.0226376,0.203562,-0.27312,3210.44,0.269902,-0.193907,0
340,0.201859,-0.277916,0,0,-0.170324,-0.479637,0.201859,-0.277916,3214.71,0.270368,-0.243293,0
350,0.196456,-0.28014,0,0,-0.54023,-0.222389,0.196456,-0.28014,3217.9,0.233795,-0.351136,0
360,0.186154,-0.280423,0,0,-1.03025,-0.0282631,0.186154,-0.280423,3219.56,0.0913062,-0.268357,0
370,0.172523,-0.292998,0,0,-1.36304,-1.25751,0.172523,-0.292998,3220.13,0.166887,-0.29716,0
380,0.157903,-0.314985,0,0,-1.46206,-2.19873,0.157903,-0.314985,3220.25,0.140843,-0.417264,0
390,0.143073,-0.320177,0,0,-1.48294,-0.519156,0.143073,-0.320177,3220.27,0.0739861,-0.369661,0
400,0.126389,-0.336382,0,0,-1.66846,-1.62049,0.126389,-0.336382,3220.27,0.18583,-0.361472,0
410,0.109208,-0.348072,0,0,-1.71807,-1.16904,0.109208,-0.348072,3220.25,0.120243,-0.304355,0
420,0.0903335,-0.357074,0,0,-1.88746,-0.900202,0.0903335,-0.357074,3220.15,0.0878854,-0.318393,0
430,0.0687963,-0.357348,0,0,-2.15372,-0.027336,0.0687963,-0.357348,3219.77,0.0203442,-0.392527,0
440,0.0450624,-0.370783,0,0,-2.37339,-1.34355,0.0450624,-0.370783,3219.01,0.0299645,-0.392851,0
450,0.0247011,-0.386603,0,0,-2.03612,-1.58203,0.0247011,-0.386603,3218.14,-0.037384,-0.383421,0
460,0.0129764,-0.386908,0,0,-1.17248,-0.0304499,0.0129764,-0.386908,3217.49,0.0446672,-0.238927,0
470,0.00853339,-0.384489,0,0,-0.4443,0.241937,0.00853339,-0.384489,3216.93,-0.0251159,-0.464594,0
480,0.0102391,-0.331654,0,0,0.17057,5.28347,0.0102391,-0.331654,3216.14,-0.0424431,-0.238385,0
490,0.0116688,-0.301537,0,0,0.142972,3.01171,0.0116688,-0.301537,3215.2,-0.0263251,-0.254453,0
500,0.0115684,-0.300308,0,0,-0.0100364,0.122924,0.0115684,-0.300308,3214.29,0.0219314,-0.297074,0
510,0.0108127,-0.301813,0,0,-0.0755768,-0.150556,0.0108127,-0.301813,3213.49,0.0435815,-0.45577,0
520,0.00728371,-0.337765,0,0,-0.352897,-3.59521,0.00728371,-0.337765,3212.9,0.0582608,-0.353614,0
530,0.00321356,-0.367717,0,0,-0.407014,-2.99521,0.00321356,-0.367717,3212.44,0.0153455,-0.319538,0
540,-0.00163243,-0.386184,0,0,-0.484599,-1.8467,-0.00163243,-0.386184,3211.6,0.0586077,-0.419676,0
550,-0.0127228,-0.438816,0,0,-1.10904,-5.26316,-0.0127228,-0.438816,3210.06,-0.0643133,-0.50583,0
560,-0.0285347,-0.478901,0,0,-1.58118,-4.00855,-0.0285347,-0.478901,3208.05,-0.124237,-0.494656,0
570,-0.0424138,-0.480273,0,0,-1.38792,-0.137127,-0.0424138,-0.480273,3205.88,-0.0439932,-0.493391,0
580,-0.0512841,-0.483447,0,0,-0.887029,-0.317412,-0.0512841,-0.483447,3203.6,0.0255269,-0.469085,0
590,-0.0548784,-0.483478,0,0,-0.359426,-0.00312571,-0.0548784,-0.483478,3200.99,-0.132164,-0.39693,0
600,-0.0558996,-0.483556,0,0,-0.102123,-0.00779794,-0.0558996,-0.483556,3197.79,-0.0545394,-0.481501,0
610,-0.0563174,-0.486945,0,0,-0.0417817,-0.338855,-0.0563174,-0.486945,3194.07,-0.071268,-0.564053,0
620,-0.0572284,-0.506598,0,0,-0.0911011,-1.96532,-0.0572284,-0.506598,3189.44,-0.100218,-0.514161,0
630,-0.0560485,-0.516136,0,0,0.11799,-0.953856,-0.0560485,-0.516136,3182.9,0.0637327,-0.576559,0
640,-0.0504148,-0.518628,0,0,0.563372,-0.249188,-0.0504148,-0.518628,3174.16,-0.0584927,-0.483356,0
650,-0.0401247,-0.530056,0,0,1.02902,-1.14277,-0.0401247,-0.530056,3164.1,-0.0261287,-0.519846,0
660,-0.0279741,-0.543101,0,0,1.21506,-1.30453,-0.0279741,-0.543101,3154.43,-0.0849837,-0.575518,0
670,-0.0183031,-0.55892,0,0,0.967094,-1.58192,-0.0183031,-0.55892,3147.08,-0.00122937,-0.479321,0
680,-0.0114076,-0.56047,0,0,0.689556,-0.15496,-0.0114076,-0.56047,3142.32,-0.0137908,-0.570368,0
690,-0.00712484,-0.57607,0,0,0.428272,-1.56004,-0.00712484,-0.57607,3137.64,0.110944,-0.666408,0
700,-0.002361,-0.588528,0,0,0.476384,-1.24574,-0.002361,-0.588528,3130.12,-0.00371151,-0.47526,0
710,0.00421874,-0.61126,0,0,0.657973,-2.27325,0.00421874,-0.61126,3119.23,-0.064314,-0.578205,0
720,0.0153261,-0.623318,0,0,1.11074,-1.20578,0.0153261,-0.623318,3106.16,0.015124,-0.692596,0
730,0.0284667,-0.621132,0,0,1.31406,0.21856,0.0284667,-0.621132,3091.88,0.0799909,-0.625613,0
740,0.0362412,-0.620857,0,0,0.777445,0.0275892,0.0362412,-0.620857,3077.97,0.0912763,-0.630764,0
750,0.0370711,-0.611419,0,0,0.0829901,0.943772,0.0370711,-0.611419,3067.48,-0.0636546,-0.616396,0
760,0.0337012,-0.602071,0,0,-0.336986,0.934797,0.0337012,-0.602071,3061.93,0.0832671,-0.521144,0
770,0.0268916,-0.570993,0,0,-0.680967,3.10777,0.0268916,-0.570993,3059.55,0.136095,-0.556722,0
780,0.0100305,-0.569084,0,0,-1.68611,0.190924,0.0100305,-0.569084,3057.35,0.071716,-0.549787,0
790,-0.0133262,-0.568328,0,0,-2.33567,0.0755665,-0.0133262,-0.568328,3052.84,0.0328071,-0.643107,0
800,-0.035204,-0.568674,0,0,-2.18778,-0.0345961,-0.035204,-0.568674,3045.34,-0.111124,-0.450949,0
810,-0.0516601,-0.576192,0,0,-1.64561,-0.751746,-0.0516601,-0.576192,3037.35,-0.0887,-0.6235,0
820,-0.0650977,-0.576091,0,0,-1.34376,0.0100781,-0.0650977,-0.576091,3032.06,-0.13374,-0.60806,0
830,-0.0776758,-0.57459,0,0,-1.25781,0.150114,-0.0776758,-0.57459,3029.96,-0.201865,-0.562809,0
840,-0.0839516,-0.548114,0,0,-0.627572,2.64763,-0.0839516,-0.548114,3029.63,-0.171116,-0.491875,0
850,-0.0813062,-0.505648,0,0,0.264535,4.2465,-0.0813062,-0.505648,3029.87,0.00826311,-0.482028,0
860,-0.0696311,-0.479124,0,0,1.16751,2.65246,-0.0696311,-0.479124,3030.27,0.0246137,-0.478999,0
870,-0.0490032,-0.466554,0,0,2.06279,1.25696,-0.0490032,-0.466554,3031.08,-0.091063,-0.436114,0
880,-0.0261122,-0.42903,0,0,2.2891,3.75241,-0.0261122,-0.42903,3032.61,0.0121773,-0.364798,0
890,-0.0116823,-0.383833,0,0,1.44299,4.51973,-0.0116823,-0.383833,3034.61,0.137374,-0.547221,0
900,-0.00745345,-0.363284,0,0,0.422886,2.05489,-0.00745345,-0.363284,3036.55,0.135767,-0.367755,0
910,-0.0070775,-0.33133,0,0,0.0375952,3.19544,-0.0070775,-0.33133,3038.18,-0.00784268,-0.284132,0
920,-0.0084923,-0.304626,0,0,-0.14148,2.67034,-0.0084923,-0.304626,3039.55,-0.0617857,-0.173636,0
930,-0.0111773,-0.303423,0,0,-0.268499,0.120364,-0.0111773,-0.303423,3040.58,0.0498912,-0.315128,0
940,-0.0145823,-0.305643,0,0,-0.340497,-0.222002,-0.0145823,-0.305643,3041.17,-0.0179751,-0.308069,0
950,-0.0222125,-0.359886,0,0,-0.763028,-5.4243,-0.0222125,-0.359886,3041.49,-0.260245,-0.435153,0
960,-0.028714,-0.393487,0,0,-0.650149,-3.36019,-0.028714,-0.393487,3041.81,-0.212117,-0.377909,0
970,-0.0322301,-0.403787,0,0,-0.351605,-1.02992,-0.0322301,-0.403787,3042.13,-0.121301,-0.569915,0
980,-0.0339304,-0.403356,0,0,-0.170032,0.0430813,-0.0339304,-0.403356,3042.38,0.0577237,-0.378267,0
990,-0.0342947,-0.385077,0,0,-0.0364279,1.82784,-0.0342947,-0.385077,3042.69,-0.0309705,-0.269422,0
1000,-0.034391,-0.368118,0,0,-0.00962988,1.69592,-0.034391,-0.368118,3043.32,0.0413974,-0.417108,0
1010,-0.0355644,-0.366423,0,0,-0.117342,0.169489,-0.0355644,-0.366423,3044.33,-0.00797834,-0.345018,0
1020,-0.0375156,-0.34478,0,0,-0.195122,2.16437,-0.0375156,-0.34478,3045.55,-0.0267149,-0.312948,0
1030,-0.0428844,-0.341301,0,0,-0.536882,0.347861,-0.0428844,-0.341301,3046.88,-0.0786106,-0.397547,0
1040,-0.0501703,-0.333149,0,0,-0.728585,0.81516,-0.0501703,-0.333149,3048.55,-0.0970308,-0.337638,0
1050,-0.0592102,-0.331497,0,0,-0.903992,0.16524,-0.0592102,-0.331497,3051.03,-0.12422,-0.246374,0
1060,-0.0669974,-0.330362,0,0,-0.778718,0.113467,-0.0669974,-0.330362,3054.81,-0.0913566,-0.368867,0
1070,-0.0706031,-0.310019,0,0,-0.360577,2.03436,-0.0706031,-0.310019,3059.79,-0.0699445,-0.335766,0
1080,-0.0710508,-0.276358,0,0,-0.044762,3.36604,-0.0710508,-0.276358,3064.74,0.000427805,-0.258936,0
1090,-0.0697736,-0.244193,0,0,0.127714,3.21658,-0.0697736,-0.244193,3068.8,0.0925577,-0.171656,0
1100,-0.0669631,-0.242933,0,0,0.281049,0.125984,-0.0669631,-0.242933,3072.85,0.0504926,-0.186968,0
1110,-0.0577198,-0.243702,0,0,0.924333,-0.0769704,-0.0577198,-0.243702,3078.47,-0.080878,-0.22873,0
1120,-0.0419224,-0.256432,0,0,1.57974,-1.27291,-0.0419224,-0.256432,3085.81,-0.166021,-0.381063,0
1130,-0.0272856,-0.297629,0,0,1.46368,-4.11975,-0.0272856,-0.297629,3092.87,-0.0980876,-0.328449,0
1140,-0.0162313,-0.29977,0,0,1.10542,-0.214052,-0.0162313,-0.29977,3097.68,0.0303248,-0.335165,0
1150,-0.00862596,-0.299917,0,0,0.760538,-0.0147715,-0.00862596,-0.299917,3100.34,0.0225606,-0.307045,0
1160,-0.00155471,-0.296452,0,0,0.707125,0.346521,-0.00155471,-0.296452,3101.8,0.0661435,-0.248406,0
1170,0.0058586,-0.268512,0,0,0.741331,2.79399,0.0058586,-0.268512,3102.64,-0.019855,-0.0727033,0
1180,0.0105951,-0.266678,0,0,0.473653,0.183414,0.0105951,-0.266678,3103.23,-0.0104344,-0.238269,0
1190,0.0154885,-0.248328,0,0,0.489337,1.83504,0.0154885,-0.248328,3104.08,0.0745113,-0.279735,0
1200,0.0209594,-0.219849,0,0,0.547091,2.84783,0.0209594,-0.219849,3105.62,-0.0384502,-0.338023,0
1210,0.0259634,-0.217783,0,0,0.500394,0.206686,0.0259634,-0.217783,3107.65,0.123013,-0.157146,0
1220,0.0352905,-0.195131,0,0,0.93271,2.26513,0.0352905,-0.195131,3109.42,0.0280248,-0.0862604,0
1230,0.0468567,-0.194511,0,0,1.15662,0.0620641,0.0468567,-0.194511,3110.49,0.0263679,-0.242293,0
1240,0.0550324,-0.196622,0,0,0.817575,-0.211153,0.0550324,-0.196622,3111.05,0.0977394,-0.139177,0
1250,0.0533568,-0.238204,0,0,-0.167567,-4.15817,0.0533568,-0.238204,3111.29,0.25504,-0.34309,0
1260,0.0508405,-0.236023,0,0,-0.251627,0.218137,0.0508405,-0.236023,3111.24,0.10094,-0.28301,0
1270,0.0488966,-0.23525,0,0,-0.194395,0.077256,0.0488966,-0.23525,3110.7,0.0581709,-0.348039,0
1280,0.0452241,-0.222742,0,0,-0.367241,1.2508,0.0452241,-0.222742,3109.26,0.100562,-0.158784,0
1290,0.0324476,-0.214546,0,0,-1.27765,0.819542,0.0324476,-0.214546,3106.81,0.0129505,-0.0722124,0
1300,0.0116141,-0.161476,0,0,-2.08335,5.30707,0.0116141,-0.161476,3103.67,-0.039105,-0.167631,0
1310,-0.0127417,-0.158703,0,0,-2.43558,0.277279,-0.0127417,-0.158703,3100.29,-0.158667,-0.263519,0
1320,-0.0299168,-0.165811,0,0,-1.71751,-0.710827,-0.0299168,-0.165811,3097.3,-0.133037,-0.142564,0
1330,-0.0409448,-0.165569,0,0,-1.1028,0.0242573,-0.0409448,-0.165569,3095,-0.192633,-0.271524,0
1340,-0.0494705,-0.160017,0,0,-0.85257,0.555176,-0.0494705,-0.160017,3092.82,-0.0452079,-0.195695,0
1350,-0.0549733,-0.148599,0,0,-0.550281,1.14175,-0.0549733,-0.148599,3090.4,-0.0661737,0.0224671,0
1360,-0.0577132,-0.15953,0,0,-0.273993,-1.09307,-0.0577132,-0.15953,3088.04,0.0107508,-0.106789,0
1370,-0.0558851,-0.160307,0,0,0.18281,-0.0777164,-0.0558851,-0.160307,3086.26,-0.0379147,-0.144975,0
1380,-0.0510213,-0.166259,0,0,0.486379,-0.59512,-0.0510213,-0.166259,3085.33,-0.102993,-0.260624,0
1390,-0.0456202,-0.190073,0,0,0.540113,-2.38145,-0.0456202,-0.190073,3085.02,-0.0488578,-0.257674,0
1400,-0.0391875,-0.191745,0,0,0.643269,-0.167188,-0.0391875,-0.191745,3084.95,-0.122574,-0.178354,0
1410,-0.0346792,-0.201185,0,0,0.450835,-0.944012,-0.0346792,-0.201185,3084.95,-0.120246,-0.24412,0
1420,-0.0307957,-0.191855,0,0,0.388346,0.93302,-0.0307957,-0.191855,3084.96,0.0223438,-0.143019,0
1430,-0.0268069,-0.178888,0,0,0.398877,1.29666,-0.0268069,-0.178888,3084.94,-0.0120556,-0.203181,0
1440,-0.0240286,-0.176963,0,0,0.277833,0.19253,-0.0240286,-0.176963,3084.91,0.0408414,-0.143242,0
1450,-0.0228524,-0.177493,0,0,0.117624,-0.0529998,-0.0228524,-0.177493,3084.96,0.182135,-0.154743,0
1460,-0.0231948,-0.189553,0,0,-0.0342422,-1.20603,-0.0231948,-0.189553,3085.27,-0.0366394,-0.208723,0
1470,-0.0234264,-0.177474,0,0,-0.023159,1.20797,-0.0234264,-0.177474,3086.15,0.0193677,-0.214191,0
1480,-0.0254634,-0.17681,0,0,-0.203707,0.0663493,-0.0254634,-0.17681,3088.43,-0.153256,-0.197224,0
1490,-0.0269581,-0.175571,0,0,-0.149466,0.123872,-0.0269581,-0.175571,3092.74,-0.0524103,-0.163998,0
1500,-0.0262762,-0.167049,0,10.3311,0.0681857,0.852283,-0.0262762,10.4982,3098.62,-0.0805635,-0.171411,0
1510,-0.0213479,-0.112848,0,10.3311,0.492833,5.42003,-0.0213479,10.444,3105.21,-0.0575825,-0.0419592,0
1520,-0.0159126,-0.0626042,0,10.3311,0.543536,5.0244,-0.0159126,10.3937,3111.62,0.00341077,-0.0555613,0
1530,-0.0113384,-0.0606424,0,10.3311,0.45742,0.196187,-0.0113384,10.3917,3116.75,0.00552215,-0.066785,0
1540,-0.000776013,-0.0609971,0,10.3311,1.05623,-0.0354723,-0.000776013,10.3921,3120.31,0.0730832,-0.138749,0
1550,0.0148118,-0.0632902,0,10.3311,1.55878,-0.229309,0.0148118,10.3944,3123.37,0.0403397,-0.00581139,0
1560,0.025726,-0.106133,0,10.3311,1.09142,-4.28425,0.025726,10.4372,3127.46,0.0305029,-0.171167,0
1570,0.0293271,-0.158631,0,10.3311,0.360113,-5.24983,0.0293271,10.4897,3132.66,-0.0866115,-0.191114,0
1580,0.0300557,-0.171773,0,10.3311,0.072856,-1.31418,0.0300557,10.5029,3137.28,0.0389461,-0.149948,0
1590,0.0282402,-0.183335,0,10.3311,-0.181546,-1.15626,0.0282402,10.5144,3140.27,0.0168294,-0.145223,0
1600,0.0246733,-0.187449,0,10.3311,-0.356692,-0.411326,0.0246733,10.5186,3142.33,0.106052,-0.237403,0
1610,0.0208624,-0.177075,0,10.3311,-0.38109,1.0374,0.0208624,10.5082,3144.21,-0.0004273,-0.238605,0
1620,0.0182188,-0.176351,0,10.3311,-0.264357,0.0724012,0.0182188,10.5075,3145.65,0.0373806,-0.128392,0
1630,0.0184713,-0.170922,0,10.3311,0.0252427,0.542876,0.0184713,10.502,3146.19,0.0164552,-0.0862703,0
1640,0.0210628,-0.137664,0,10.3311,0.259148,3.32583,0.0210628,10.4688,3145.7,0.0112695,-0.162955,0
1650,0.0227393,-0.11192,0,10.3311,0.167656,2.57434,0.0227393,10.443,3144.35,0.0816259,-0.093634,0
1660,0.0229726,-0.099434,0,10.3311,0.0233238,1.24861,0.0229726,10.4305,3142.54,0.0164268,-0.130874,0
1670,0.0226298,-0.078886,0,10.3311,-0.0342724,2.0548,0.0226298,10.41,3140.33,-0.0783395,-0.0775059,0
1680,0.047615,0.466543,0,10.3311,2.49852,54.5429,0.047615,9.86456,3138.01,0.446829,1.82451,0
1690,0.147377,2.70782,0,10.3311,9.97616,224.127,0.147377,7.62329,3136.49,0.540212,4.47162,0
1700,0.247832,5.71348,0,10.3311,10.0455,300.567,0.247832,4.61762,3136.03,0.58714,7.00047,0
1710,0.27037,7.96666,0,10.3311,2.2538,225.318,0.27037,2.36444,3136.47,0.131338,9.00429,0
1720,0.233593,9.25798,0,10.3311,-3.67771,129.132,0.233593,1.07312,3138.61,0.104513,10.1474,0
1730,0.184939,9.83396,0,10.3311,-4.86541,57.5973,0.184939,0.497148,3143.56,0.194577,10.1678,0
1740,0.155875,10.1256,0,10.3311,-2.90634,29.1691,0.155875,0.205457,3150.16,0.14463,10.2243,0
1750,0.140511,10.1576,0,10.3311,-1.53649,3.19087,0.140511,0.173548,3155.27,0.223518,10.1136,0
1760,0.13435,10.1604,0,10.3311,-0.616102,0.282995,0.13435,0.170718,3157.57,0.115955,10.1511,0
1770,0.131221,10.1915,0,10.3311,-0.312821,3.11031,0.131221,0.139615,3158.23,0.133698,10.1677,0
1780,0.125893,10.2145,0,10.3311,-0.532794,2.29853,0.125893,0.11663,3158.55,0.0841978,10.2826,0
1790,0.116384,10.2515,0,10.3311,-0.950985,3.6998,0.116384,0.0796316,3159.07,0.114546,10.2686,0
1800,0.101977,10.2654,0,10.3311,-1.44066,1.39586,0.101977,0.0656729,3160.08,0.175947,10.3177,0
1810,0.0857156,10.2725,0,10.3311,-1.62614,0.703795,0.0857156,0.058635,3162.01,0.0439498,10.1564,0
1820,0.0607816,10.2765,0,10.3311,-2.4934,0.402341,0.0607816,0.0546116,3165.1,0.025406,10.2071,0
1830,0.0085191,10.3518,0,10.3311,-5.22625,7.52651,0.0085191,-0.0206535,3169.33,0.0798854,10.4189,0
1840,-0.078351,10.4756,0,10.3311,-8.68701,12.3832,-0.078351,-0.144485,3174.25,-0.216686,10.8894,0
1850,-0.170626,10.537,0,10.3311,-9.22747,6.1422,-0.170626,-0.205907,3179.07,-0.220598,10.5373,0
1860,-0.236811,10.5414,0,10.3311,-6.61853,0.43382,-0.236811,-0.210245,3184.02,-0.314957,10.5759,0
1870,-0.279288,10.5412,0,10.3311,-4.24774,-0.0153514,-0.279288,-0.210092,3190.63,-0.252099,10.5525,0
1880,-0.310758,10.5082,0,10.3311,-3.147,-3.30408,-0.310758,-0.177051,3198.94,-0.358552,10.4515,0
1890,-0.332955,10.4745,0,10.3311,-2.21965,-3.3672,-0.332955,-0.143379,3205.97,-0.329488,10.4335,0
1900,-0.346894,10.4735,0,10.3311,-1.39391,-0.102578,-0.346894,-0.142353,3209.51,-0.313503,10.5027,0
1910,-0.355692,10.4737,0,10.3311,-0.879773,0.0265342,-0.355692,-0.142619,3210.5,-0.48297,10.5134,0
1920,-0.360704,10.4739,0,10.3311,-0.501236,0.0151282,-0.360704,-0.14277,3210.49,-0.416021,10.4374,0
1930,-0.364178,10.4737,0,10.3311,-0.347377,-0.0192387,-0.364178,-0.142578,3209.86,-0.363265,10.544,0
1940,-0.367538,10.4673,0,10.3311,-0.336035,-0.642694,-0.367538,-0.136151,3208.47,-0.392413,10.4545,0
1950,-0.369358,10.4719,0,10.3311,-0.181982,0.468176,-0.369358,-0.140832,3206.19,-0.331256,10.4622,0
1960,-0.369768,10.4613,0,10.3311,-0.0410163,-1.06402,-0.369768,-0.130192,3202.67,-0.404609,10.4517,0
1970,-0.366957,10.4555,0,10.3311,0.281071,-0.58392,-0.366957,-0.124353,3197.06,-0.294466,10.5582,0
1980,-0.358408,10.4346,0,10.3311,0.854892,-2.08404,-0.358408,-0.103513,3188.42,-0.441296,10.3705,0
1990,-0.33991,10.4334,0,10.3311,1.84985,-0.121333,-0.33991,-0.102299,3177.34,-0.410158,10.2637,0
2000,-0.312181,10.4381,0,10.3311,2.77294,0.464968,-0.312181,-0.106949,3166.82,-0.380448,10.3344,0
2010,-0.280217,10.4387,0,10.3311,3.19631,0.0615825,-0.280217,-0.107565,3158.55,-0.209947,10.4709,0
2020,-0.250029,10.4696,0,10.3311,3.01884,3.09609,-0.250029,-0.138526,3150.71,-0.24717,10.6065,0
